1	2	3	4	5	6	7	8	9	10	11	12	13	14	15	16	17	18	19	20	21	22	23	24	25	26	27	28	29	30	31	32	33	34	35	36
306	3	4	1	-0.6597	0.03918	-1.059	-0.2175	-0.139	0.05466	-0.7861	-0.06812	-3.878	1.527	-0.4281	-0.2097	-0.4355	-0.1492	-0.3583	-0.2035	-0.2756	-0.1722	-0.47	-0.2573	-0.4848	-0.1053	-0.501	-0.2153	-1.098	-0.2058	-0.9524	-0.02956	-0.685	-0.01828	-0.9026	-0.1797
306	3	4	1	-0.6648	0.04342	-1.058	-0.1875	-0.1856	0.07302	-0.7935	-0.05592	-3.766	1.483	-0.4253	-0.205	-0.4299	-0.1406	-0.3632	-0.2057	-0.2767	-0.1671	-0.4636	-0.2522	-0.4619	-0.1076	-0.4996	-0.2094	-1.024	-0.1724	-0.9314	-0.02961	-0.6501	-0.0006298	-0.884	-0.1679
306	3	4	1	-0.6463	0.04882	-1.027	-0.1555	-0.2219	0.0873	-0.7779	-0.04479	-3.462	1.363	-0.4086	-0.1944	-0.4095	-0.1301	-0.3564	-0.201	-0.2679	-0.1587	-0.4445	-0.2405	-0.4288	-0.1072	-0.4824	-0.1981	-0.9266	-0.1364	-0.8823	-0.02859	-0.599	0.01317	-0.8403	-0.153
306	3	4	1	-0.6045	0.05347	-0.963	-0.1234	-0.2411	0.09484	-0.7375	-0.03574	-3.003	1.182	-0.3789	-0.1803	-0.3753	-0.1187	-0.3384	-0.1908	-0.2503	-0.1474	-0.4138	-0.2235	-0.3873	-0.1044	-0.451	-0.1827	-0.8112	-0.09914	-0.8083	-0.02627	-0.5341	0.02349	-0.7731	-0.136
306	3	4	1	-0.541	0.05605	-0.8687	-0.09241	-0.2374	0.0934	-0.6721	-0.02919	-2.434	0.9582	-0.337	-0.1642	-0.3289	-0.107	-0.3099	-0.1761	-0.2251	-0.1337	-0.3726	-0.2023	-0.3395	-0.09932	-0.4069	-0.1641	-0.6826	-0.06214	-0.7129	-0.02261	-0.4582	0.03089	-0.685	-0.1173
306	3	4	1	-0.4583	0.056	-0.7461	-0.06305	-0.2084	0.08197	-0.5829	-0.02487	-1.806	0.7108	-0.2845	-0.1468	-0.2719	-0.09502	-0.2717	-0.158	-0.1934	-0.1179	-0.3219	-0.1779	-0.2868	-0.09229	-0.3519	-0.1431	-0.5454	-0.02669	-0.6001	-0.01784	-0.3739	0.03599	-0.5787	-0.09744
306	3	4	1	-0.3601	0.05353	-0.5994	-0.0353	-0.1559	0.06133	-0.473	-0.02197	-1.164	0.4578	-0.2233	-0.128	-0.2063	-0.08231	-0.2247	-0.1371	-0.1562	-0.1001	-0.2626	-0.1506	-0.2303	-0.08332	-0.2876	-0.1203	-0.4031	0.006177	-0.4741	-0.01244	-0.2835	0.03929	-0.4578	-0.07672
306	3	4	1	-0.2505	0.04943	-0.4337	-0.008747	-0.08671	0.03411	-0.3465	-0.01939	-0.545	0.2143	-0.1554	-0.107	-0.134	-0.06794	-0.1701	-0.1133	-0.1142	-0.08044	-0.1959	-0.1206	-0.1708	-0.07234	-0.2155	-0.09574	-0.2584	0.03583	-0.339	-0.007089	-0.1892	0.04115	-0.3259	-0.05526
306	3	4	1	-0.1344	0.0448	-0.255	0.01718	-0.01092	0.004295	-0.209	-0.01603	0.02355	-0.009264	-0.08313	-0.08251	-0.05699	-0.05074	-0.1091	-0.08669	-0.06826	-0.05871	-0.1229	-0.08764	-0.1087	-0.05922	-0.1372	-0.06925	-0.113	0.06201	-0.1986	-0.00255	-0.09313	0.04174	-0.1868	-0.03311
306	3	4	1	-0.01672	0.04077	-0.0699	0.04292	0.06013	-0.02365	-0.06676	-0.01107	0.5276	-0.2072	-0.009019	-0.05345	0.02259	-0.02952	-0.0434	-0.05677	-0.01901	-0.03486	-0.04524	-0.05152	-0.04427	-0.04382	-0.05469	-0.04069	0.0319	0.08469	-0.05658	0.0004783	0.002861	0.041	-0.04466	-0.01037
306	3	4	1	0.09756	0.03818	0.1145	0.06857	0.1164	-0.0458	0.07351	-0.004181	0.9634	-0.3781	0.06429	-0.01908	0.1023	-0.003509	0.02494	-0.02329	0.03251	-0.008956	0.03512	-0.01224	0.02188	-0.02613	0.0301	-0.009968	0.1747	0.1039	0.08335	0.001506	0.09671	0.03877	0.09634	0.01275
306	3	4	1	0.2035	0.03733	0.2908	0.09367	0.1513	-0.05952	0.2052	0.004441	1.334	-0.5233	0.1339	0.02043	0.1792	0.02734	0.09345	0.01366	0.08478	0.01868	0.1155	0.02977	0.08873	-0.006362	0.1147	0.02265	0.3131	0.1192	0.2176	0.0003827	0.186	0.03479	0.2317	0.03583
306	3	4	1	0.2967	0.0377	0.452	0.1171	0.1624	-0.06388	0.3222	0.01409	1.646	-0.645	0.197	0.06384	0.2497	0.06199	0.1591	0.05338	0.1356	0.04733	0.1928	0.07343	0.1546	0.01497	0.1959	0.05643	0.4433	0.1302	0.3426	-0.002603	0.268	0.02886	0.3568	0.05821
306	3	4	1	0.3733	0.03787	0.5909	0.137	0.152	-0.05977	0.4197	0.02368	1.902	-0.7447	0.2504	0.1086	0.3098	0.09811	0.2186	0.09431	0.1819	0.0758	0.2629	0.1169	0.2168	0.03704	0.2703	0.09006	0.5595	0.1355	0.4541	-0.006684	0.3392	0.02083	0.4664	0.07897
306	3	4	1	0.4305	0.0356	0.701	0.1509	0.126	-0.04956	0.4943	0.03195	2.099	-0.8215	0.2913	0.151	0.3547	0.1321	0.268	0.134	0.22	0.1024	0.3216	0.1576	0.2719	0.0587	0.3335	0.1217	0.6542	0.1337	0.5478	-0.01066	0.3959	0.0107	0.5555	0.097
306	3	4	1	0.4666	0.02821	0.7771	0.1558	0.09315	-0.03664	0.5445	0.03776	2.228	-0.872	0.317	0.1865	0.3792	0.1593	0.3036	0.1692	0.2459	0.1251	0.3642	0.1922	0.3159	0.07858	0.3811	0.1489	0.7185	0.1229	0.619	-0.01306	0.4343	-0.00133	0.6188	0.111
306	3	4	1	0.4808	0.01313	0.8151	0.1487	0.06292	-0.02475	0.5707	0.04027	2.273	-0.8902	0.3257	0.2101	0.3787	0.1747	0.3219	0.196	0.2557	0.1416	0.3866	0.2171	0.3446	0.09523	0.4088	0.1693	0.7438	0.1017	0.6634	-0.01236	0.4507	-0.01489	0.6522	0.1197
306	3	4	1	0.4733	-0.01148	0.813	0.127	0.04385	-0.01725	0.5748	0.03924	2.216	-0.869	0.3161	0.2177	0.3495	0.1734	0.3201	0.2106	0.2464	0.1497	0.3856	0.2291	0.3545	0.1073	0.4131	0.1803	0.7227	0.06945	0.6772	-0.007327	0.4428	-0.02941	0.6527	0.1217
306	3	4	1	0.4448	-0.04622	0.771	0.08909	0.04192	-0.01649	0.5597	0.03502	2.041	-0.8024	0.2884	0.2061	0.2901	0.1518	0.2968	0.2097	0.2168	0.1478	0.3595	0.2256	0.3434	0.1137	0.3922	0.1802	0.6515	0.02635	0.6585	0.00267	0.4098	-0.04424	0.6197	0.1161
306	3	4	1	0.397	-0.09025	0.6923	0.03512	0.05937	-0.02336	0.529	0.02857	1.742	-0.6878	0.2441	0.1742	0.2021	0.1086	0.2525	0.1912	0.1679	0.1354	0.3092	0.2052	0.3109	0.1139	0.3464	0.1678	0.5316	-0.02587	0.6076	0.01742	0.3531	-0.0587	0.5553	0.1024
306	3	4	1	0.3325	-0.1413	0.5826	-0.03295	0.09418	-0.03705	0.4865	0.02123	1.328	-0.5284	0.1864	0.1234	0.09015	0.04534	0.1896	0.1547	0.1032	0.113	0.2379	0.1687	0.2593	0.108	0.2787	0.1435	0.3702	-0.08417	0.5281	0.03575	0.2771	-0.07223	0.4648	0.08079
306	3	4	1	0.2551	-0.1959	0.4504	-0.1111	0.1404	-0.05524	0.4359	0.01451	0.8271	-0.3343	0.1199	0.05777	-0.03725	-0.03352	0.1129	0.1021	0.02877	0.08286	0.1514	0.1186	0.1935	0.09689	0.1949	0.1089	0.18	-0.1445	0.4265	0.05561	0.1885	-0.08452	0.3561	0.0524
306	3	4	1	0.1697	-0.25	0.3063	-0.1938	0.1895	-0.07454	0.3805	0.009805	0.2838	-0.1225	0.05039	-0.01673	-0.1691	-0.1207	0.0286	0.03704	-0.0477	0.04811	0.05743	0.05945	0.1203	0.08208	0.1025	0.06691	-0.02227	-0.2025	0.3122	0.07434	0.09607	-0.09555	0.2393	0.01895
306	3	4	1	0.08227	-0.2993	0.1618	-0.2746	0.2317	-0.09116	0.3238	0.008169	-0.2447	0.08535	-0.01627	-0.09277	-0.293	-0.2074	-0.05592	-0.03501	-0.1177	0.01269	-0.03553	-0.003265	0.04768	0.06549	0.01038	0.02123	-0.2183	-0.254	0.1961	0.08917	0.0095	-0.1057	0.1256	-0.01721
306	3	4	1	-0.0009672	-0.3402	0.02815	-0.3469	0.2586	-0.1017	0.2686	0.01005	-0.6979	0.2664	-0.0747	-0.1629	-0.3972	-0.2843	-0.1335	-0.1079	-0.1731	-0.0194	-0.1192	-0.06361	-0.01623	0.04917	-0.07307	-0.02414	-0.3908	-0.2961	0.0896	0.0977	-0.06206	-0.1156	0.02533	-0.05351
306	3	4	1	-0.07387	-0.3703	-0.08491	-0.4055	0.2639	-0.1038	0.2176	0.01512	-1.023	0.4001	-0.121	-0.221	-0.472	-0.3436	-0.1982	-0.1756	-0.2078	-0.04486	-0.1869	-0.1164	-0.06451	0.03492	-0.1409	-0.06561	-0.5264	-0.3274	0.002425	0.0983	-0.1114	-0.1261	-0.05312	-0.08753
306	3	4	1	-0.1312	-0.3894	-0.1704	-0.447	0.2449	-0.09635	0.1731	0.02212	-1.184	0.4724	-0.153	-0.2629	-0.5114	-0.3801	-0.2459	-0.2331	-0.2182	-0.06159	-0.2344	-0.1581	-0.09234	0.02403	-0.1885	-0.1006	-0.617	-0.3481	-0.05858	0.09036	-0.1343	-0.1384	-0.1046	-0.1174
306	3	4	1	-0.1691	-0.3993	-0.2246	-0.4706	0.2028	-0.07976	0.1366	0.02897	-1.169	0.4773	-0.1708	-0.2873	-0.5138	-0.3922	-0.2749	-0.2774	-0.2038	-0.06905	-0.2603	-0.1871	-0.09758	0.01704	-0.2146	-0.1281	-0.661	-0.3598	-0.09062	0.07437	-0.1305	-0.1535	-0.128	-0.1419
306	3	4	1	-0.1856	-0.404	-0.2478	-0.4783	0.1418	-0.05579	0.109	0.03295	-0.9893	0.4182	-0.1763	-0.2957	-0.482	-0.3819	-0.2859	-0.3074	-0.1669	-0.06822	-0.2664	-0.2042	-0.08085	0.01373	-0.2206	-0.1483	-0.6626	-0.3648	-0.0954	0.05175	-0.1034	-0.1723	-0.126	-0.161
306	3	4	1	-0.1805	-0.4084	-0.2434	-0.4743	0.06946	-0.02732	0.09016	0.0312	-0.6808	0.3065	-0.1726	-0.2917	-0.4228	-0.3545	-0.2816	-0.3241	-0.1124	-0.0613	-0.2566	-0.2121	-0.04519	0.01324	-0.2108	-0.1629	-0.631	-0.3657	-0.07867	0.02456	-0.05967	-0.1958	-0.105	-0.1753
306	3	4	1	-0.1562	-0.417	-0.2172	-0.4644	-0.005173	0.002035	0.07866	0.02131	-0.2944	0.1593	-0.1634	-0.2803	-0.3454	-0.3171	-0.2662	-0.33	-0.04637	-0.05117	-0.2365	-0.2144	0.004609	0.01434	-0.1908	-0.1742	-0.5782	-0.3644	-0.0492	-0.004828	-0.007714	-0.2243	-0.07328	-0.1863
306	3	4	1	-0.1166	-0.4326	-0.1768	-0.4546	-0.07253	0.02853	0.07222	0.001851	0.1126	-0.003849	-0.1523	-0.2665	-0.26	-0.2775	-0.2443	-0.3283	0.02471	-0.04072	-0.212	-0.2151	0.06297	0.01567	-0.1668	-0.1847	-0.5169	-0.362	-0.01715	-0.03411	0.04349	-0.258	-0.04006	-0.1955
306	3	4	1	-0.0672	-0.455	-0.1296	-0.4504	-0.1244	0.04895	0.06784	-0.02717	0.4869	-0.1643	-0.1421	-0.2543	-0.1762	-0.2427	-0.2205	-0.3224	0.09501	-0.03231	-0.1886	-0.2176	0.1244	0.01609	-0.1443	-0.1966	-0.4579	-0.3585	0.0078	-0.06132	0.08621	-0.2963	-0.01354	-0.2048
306	3	4	1	-0.01404	-0.4811	-0.08178	-0.4554	-0.1555	0.06119	0.06237	-0.0642	0.7898	-0.3078	-0.1345	-0.2461	-0.1014	-0.2179	-0.1983	-0.3151	0.1601	-0.02728	-0.17	-0.224	0.1844	0.01478	-0.1273	-0.2107	-0.4089	-0.3528	0.01812	-0.08503	0.1152	-0.3385	0.0003925	-0.2155
306	3	4	1	0.03767	-0.505	-0.03755	-0.471	-0.164	0.06451	0.05323	-0.1063	1.003	-0.426	-0.1296	-0.2418	-0.03998	-0.2051	-0.1797	-0.3079	0.2174	-0.02586	-0.1581	-0.2348	0.2399	0.01142	-0.1175	-0.227	-0.373	-0.3437	0.009722	-0.1044	0.1284	-0.3832	-0.0009379	-0.2284
306	3	4	1	0.08437	-0.5195	0.00155	-0.4961	-0.1511	0.05945	0.03902	-0.1494	1.132	-0.517	-0.1267	-0.2396	0.006962	-0.204	-0.1653	-0.3015	0.2662	-0.02723	-0.1526	-0.2486	0.2892	0.006077	-0.1145	-0.2441	-0.3494	-0.3298	-0.01749	-0.1192	0.1273	-0.4287	-0.01671	-0.2437
306	3	4	1	0.1248	-0.5182	0.03637	-0.5276	-0.1201	0.04724	0.01989	-0.1896	1.202	-0.5836	-0.1237	-0.2365	0.04144	-0.2119	-0.1542	-0.295	0.3072	-0.02989	-0.1515	-0.263	0.3324	-0.0009203	-0.1159	-0.2598	-0.3338	-0.3106	-0.05983	-0.1296	0.1161	-0.473	-0.04304	-0.2606
306	3	4	1	0.1599	-0.4963	0.06958	-0.561	-0.07386	0.02905	-0.002386	-0.2229	1.248	-0.6308	-0.1185	-0.2288	0.06751	-0.2247	-0.1445	-0.2871	0.3421	-0.0321	-0.1515	-0.275	0.3705	-0.009146	-0.1183	-0.2714	-0.3201	-0.2871	-0.1106	-0.1359	0.1011	-0.5142	-0.07384	-0.278
306	3	4	1	0.1927	-0.4528	0.1047	-0.5911	-0.01365	0.005368	-0.02475	-0.2467	1.309	-0.6635	-0.1089	-0.2133	0.09017	-0.2379	-0.1339	-0.2762	0.373	-0.03238	-0.1492	-0.2814	0.4053	-0.01825	-0.1178	-0.2766	-0.3021	-0.2611	-0.1617	-0.1389	0.08922	-0.5507	-0.1021	-0.2946
306	3	4	1	0.2269	-0.39	0.1453	-0.6133	0.0619	-0.02435	-0.04352	-0.2599	1.42	-0.6849	-0.09355	-0.1881	0.1143	-0.2477	-0.1201	-0.2609	0.4018	-0.02984	-0.1412	-0.2799	0.4385	-0.02803	-0.111	-0.2739	-0.2745	-0.2356	-0.2047	-0.1393	0.08666	-0.5813	-0.1211	-0.3089
306	3	4	1	0.2663	-0.3137	0.194	-0.6241	0.1558	-0.06127	-0.05507	-0.2628	1.601	-0.6967	-0.07188	-0.1529	0.1436	-0.2512	-0.1013	-0.2405	0.4301	-0.02438	-0.1251	-0.2692	0.4719	-0.03847	-0.09511	-0.2625	-0.2339	-0.2138	-0.2325	-0.1379	0.09818	-0.6053	-0.1256	-0.3195
306	3	4	1	0.3142	-0.2321	0.2521	-0.6216	0.2699	-0.1062	-0.05661	-0.2573	1.861	-0.7005	-0.04464	-0.1089	0.1804	-0.2472	-0.07678	-0.215	0.4587	-0.01666	-0.09977	-0.2493	0.5068	-0.04966	-0.069	-0.2433	-0.1793	-0.1986	-0.2404	-0.1359	0.1264	-0.6226	-0.1123	-0.3259
306	3	4	1	0.3724	-0.1545	0.3196	-0.6056	0.4014	-0.1579	-0.04661	-0.2462	2.19	-0.6994	-0.01356	-0.05893	0.2254	-0.2357	-0.04664	-0.1851	0.4878	-0.007921	-0.06517	-0.2215	0.544	-0.06171	-0.03276	-0.2178	-0.1114	-0.1917	-0.2268	-0.1342	0.1714	-0.6336	-0.08083	-0.3275
306	3	4	1	0.4413	-0.08964	0.3946	-0.5776	0.5388	-0.2119	-0.02508	-0.233	2.562	-0.7	0.0189	-0.006692	0.2777	-0.2177	-0.0121	-0.1523	0.5173	0.0003109	-0.02268	-0.188	0.5838	-0.07473	0.01215	-0.1887	-0.03281	-0.1934	-0.1927	-0.134	0.2313	-0.639	-0.03293	-0.3246
306	3	4	1	0.5196	-0.04504	0.4743	-0.5402	0.6597	-0.2595	0.006553	-0.2213	2.935	-0.7133	0.05018	0.04371	0.3351	-0.1953	0.02491	-0.1185	0.5468	0.006527	0.02545	-0.1517	0.6262	-0.08871	0.06327	-0.1587	0.05313	-0.2022	-0.1419	-0.1364	0.3024	-0.6397	0.02757	-0.318
306	3	4	1	0.6046	-0.02548	0.5554	-0.4969	0.7312	-0.2876	0.04588	-0.2142	3.255	-0.7545	0.07816	0.08834	0.3952	-0.1706	0.06212	-0.08557	0.576	0.009538	0.07652	-0.1154	0.6707	-0.1035	0.1177	-0.1306	0.1428	-0.2158	-0.07939	-0.1418	0.3801	-0.6369	0.09589	-0.3087
306	3	4	1	0.6926	-0.03295	0.6347	-0.4514	0.7148	-0.2812	0.09014	-0.2136	3.468	-0.8403	0.1018	0.1239	0.4554	-0.146	0.09747	-0.05537	0.6047	0.008655	0.1279	-0.08187	0.717	-0.1188	0.1727	-0.1065	0.233	-0.2311	-0.01044	-0.1504	0.4597	-0.6317	0.1673	-0.298
306	3	4	1	0.7796	-0.06649	0.7099	-0.4069	0.5742	-0.2259	0.137	-0.2204	3.525	-0.9853	0.1216	0.1481	0.5134	-0.1236	0.1294	-0.02925	0.6331	0.003726	0.1773	-0.0529	0.7645	-0.1342	0.2261	-0.08785	0.3212	-0.245	0.06046	-0.1615	0.5368	-0.6257	0.238	-0.2868
306	3	4	1	0.8619	-0.1225	0.7803	-0.3663	0.2879	-0.1132	0.1849	-0.2338	3.401	-1.196	0.1391	0.1597	0.5677	-0.1051	0.1574	-0.008093	0.6615	-0.004946	0.2234	-0.0295	0.8131	-0.1491	0.2765	-0.07485	0.4058	-0.2556	0.1305	-0.1741	0.6083	-0.6204	0.3058	-0.276
306	3	4	1	0.9364	-0.1949	0.8469	-0.3314	-0.1398	0.055	0.2339	-0.2516	3.107	-1.466	0.1574	0.1585	0.6177	-0.09185	0.1815	0.007768	0.6904	-0.01677	0.2656	-0.01182	0.8626	-0.1626	0.3235	-0.06705	0.486	-0.262	0.1986	-0.1864	0.6721	-0.6175	0.3705	-0.2659
306	3	4	1	1.001	-0.2755	0.9117	-0.3035	-0.6694	0.2633	0.2847	-0.2702	2.687	-1.771	0.1794	0.1452	0.6631	-0.08467	0.2028	0.0184	0.7203	-0.03106	0.3039	0.0007058	0.9127	-0.1739	0.3674	-0.06337	0.5611	-0.2648	0.2655	-0.1968	0.7273	-0.6187	0.4334	-0.2566
306	3	4	1	1.056	-0.3542	0.9776	-0.2828	-1.224	0.4815	0.3389	-0.2848	2.223	-2.066	0.2079	0.1216	0.7038	-0.0839	0.2226	0.02417	0.751	-0.04711	0.3388	0.009036	0.963	-0.182	0.4087	-0.06255	0.6303	-0.2664	0.333	-0.2035	0.7744	-0.6255	0.4967	-0.2477
306	3	4	1	1.099	-0.4196	1.047	-0.2693	-1.695	0.6666	0.398	-0.2901	1.816	-2.292	0.2442	0.0902	0.7397	-0.08933	0.2421	0.02555	0.7822	-0.06429	0.3709	0.01427	1.013	-0.1858	0.4481	-0.06347	0.6927	-0.2698	0.4033	-0.2052	0.8142	-0.6392	0.5631	-0.2385
306	3	4	1	1.131	-0.4597	1.122	-0.2625	-1.951	0.7676	0.4625	-0.2806	1.58	-2.38	0.288	0.05425	0.7704	-0.1001	0.2623	0.0231	0.8132	-0.08195	0.4008	0.01743	1.061	-0.1846	0.4857	-0.06533	0.7471	-0.2787	0.478	-0.2008	0.8483	-0.6603	0.6348	-0.2286
306	3	4	1	1.152	-0.4636	1.202	-0.2617	-1.861	0.7319	0.5322	-0.2518	1.627	-2.259	0.337	0.01775	0.7954	-0.1149	0.2834	0.01745	0.8426	-0.09935	0.4287	0.01937	1.107	-0.1774	0.5215	-0.06774	0.7921	-0.2961	0.5579	-0.1904	0.8782	-0.6886	0.7128	-0.2171
306	3	4	1	1.162	-0.4235	1.285	-0.2659	-1.305	0.5132	0.6055	-0.2011	2.058	-1.866	0.3877	-0.01494	0.8139	-0.1316	0.3053	0.009361	0.8693	-0.1156	0.4548	0.02081	1.15	-0.1639	0.5551	-0.07064	0.8273	-0.3238	0.6424	-0.1742	0.9055	-0.723	0.7969	-0.2036
306	3	4	1	1.162	-0.3367	1.37	-0.2738	-0.2078	0.08172	0.6801	-0.129	2.959	-1.164	0.4355	-0.03947	0.8253	-0.1479	0.3271	-0.0001799	0.8923	-0.1294	0.4792	0.02235	1.188	-0.144	0.586	-0.07408	0.8531	-0.3618	0.7301	-0.1536	0.9315	-0.7617	0.8855	-0.188
306	3	4	1	1.155	-0.209	1.452	-0.284	1.429	-0.5621	0.7536	-0.03994	4.371	-0.1616	0.4763	-0.05217	0.8298	-0.1613	0.3481	-0.0099	0.911	-0.1398	0.5018	0.02459	1.222	-0.1182	0.614	-0.07801	0.8717	-0.408	0.8188	-0.1301	0.9576	-0.8021	0.9762	-0.1701
306	3	4	1	1.145	-0.05644	1.526	-0.2947	3.475	-1.367	0.8242	0.05664	6.251	1.051	0.5075	-0.05084	0.8282	-0.1697	0.3672	-0.0183	0.9258	-0.1456	0.5234	0.02816	1.253	-0.08754	0.6396	-0.08213	0.8865	-0.4582	0.9063	-0.1058	0.9851	-0.8416	1.066	-0.1503
306	3	4	1	1.137	0.09263	1.589	-0.3043	5.605	-2.205	0.8915	0.1465	8.357	2.256	0.5288	-0.03545	0.8221	-0.1718	0.3842	-0.02384	0.9378	-0.1462	0.5446	0.03367	1.281	-0.05361	0.6635	-0.08584	0.9025	-0.5071	0.9907	-0.08242	1.015	-0.8774	1.152	-0.129
306	3	4	1	1.139	0.1984	1.637	-0.3109	7.243	-2.849	0.9564	0.2114	10.1	3.081	0.5425	-0.008823	0.8137	-0.1672	0.3987	-0.02519	0.949	-0.1419	0.5664	0.04159	1.308	-0.0184	0.6872	-0.08837	0.9243	-0.5493	1.07	-0.06174	1.048	-0.9071	1.231	-0.1065
306	3	4	1	1.159	0.2132	1.67	-0.3134	7.611	-2.994	1.021	0.2312	10.52	3.057	0.5529	0.02317	0.8056	-0.157	0.4111	-0.02155	0.9616	-0.1338	0.5898	0.05211	1.336	0.01587	0.7118	-0.08896	0.9562	-0.5796	1.145	-0.04493	1.084	-0.9292	1.302	-0.08333
306	3	4	1	1.202	0.08991	1.686	-0.3109	5.978	-2.352	1.088	0.1874	8.797	1.821	0.566	0.05188	0.7999	-0.1435	0.4217	-0.0128	0.978	-0.1241	0.6152	0.06508	1.367	0.04702	0.7384	-0.08709	1.001	-0.5945	1.213	-0.03272	1.122	-0.943	1.363	-0.0601
306	3	4	1	1.268	-0.207	1.686	-0.3032	2.074	-0.8157	1.157	0.06774	5.044	-0.6609	0.5877	0.06687	0.7985	-0.1298	0.4311	0.0004027	1	-0.1154	0.6429	0.07999	1.4	0.07315	0.7673	-0.0826	1.059	-0.5921	1.274	-0.02541	1.163	-0.9487	1.412	-0.03733
306	3	4	1	1.352	-0.6887	1.671	-0.2907	-3.704	1.457	1.226	-0.1294	0.2264	-4.034	0.6223	0.05744	0.8025	-0.1195	0.4396	0.01682	1.03	-0.1111	0.6723	0.09606	1.437	0.09285	0.798	-0.07574	1.13	-0.5726	1.327	-0.02298	1.203	-0.9474	1.449	-0.01574
306	3	4	1	1.439	-1.333	1.646	-0.2746	-10.51	4.134	1.289	-0.3917	-4.694	-7.763	0.6719	0.01472	0.8122	-0.1159	0.4473	0.03482	1.068	-0.1138	0.7023	0.1124	1.476	0.1053	0.8295	-0.06708	1.211	-0.538	1.373	-0.02523	1.241	-0.9407	1.476	0.003804
306	3	4	1	1.51	-2.085	1.612	-0.256	-17.45	6.866	1.336	-0.6924	-9.161	-11.38	0.7344	-0.06634	0.827	-0.1215	0.4545	0.05273	1.114	-0.1257	0.7316	0.1283	1.516	0.1102	0.8602	-0.05735	1.299	-0.4919	1.41	-0.03189	1.277	-0.9308	1.492	0.02027
306	3	4	1	1.545	-2.863	1.572	-0.2369	-23.85	9.383	1.353	-0.9924	-12.94	-14.58	0.8047	-0.1853	0.8457	-0.1375	0.4611	0.06913	1.167	-0.1474	0.7585	0.1431	1.556	0.1079	0.8884	-0.04727	1.39	-0.4385	1.44	-0.04262	1.307	-0.9198	1.501	0.03252
306	3	4	1	1.528	-3.574	1.53	-0.2191	-29.27	11.51	1.327	-1.246	-15.97	-17.19	0.8742	-0.3354	0.8665	-0.1633	0.4672	0.08308	1.223	-0.1783	0.7818	0.1569	1.592	0.09913	0.9126	-0.03736	1.479	-0.383	1.462	-0.05699	1.333	-0.9097	1.504	0.0395
306	3	4	1	1.451	-4.13	1.489	-0.2044	-33.45	13.16	1.248	-1.408	-18.25	-19.15	0.9337	-0.5045	0.8877	-0.197	0.4727	0.09428	1.28	-0.2157	0.8002	0.1697	1.624	0.08504	0.9315	-0.02783	1.564	-0.3302	1.478	-0.07442	1.352	-0.9022	1.503	0.04039
306	3	4	1	1.313	-4.46	1.452	-0.1944	-36.29	14.28	1.109	-1.441	-19.79	-20.41	0.9746	-0.6762	0.9073	-0.2351	0.4778	0.103	1.332	-0.2556	0.813	0.1823	1.648	0.06698	0.9445	-0.01857	1.641	-0.2842	1.488	-0.09412	1.367	-0.8984	1.5	0.03479
306	3	4	1	1.119	-4.522	1.419	-0.1901	-37.75	14.85	0.9108	-1.326	-20.64	-20.98	0.9915	-0.8324	0.9239	-0.2736	0.4827	0.1102	1.375	-0.293	0.8199	0.1955	1.664	0.0464	0.9513	-0.00919	1.708	-0.2486	1.495	-0.1151	1.376	-0.8991	1.498	0.02283
306	3	4	1	0.8763	-4.308	1.392	-0.1919	-37.86	14.89	0.6617	-1.059	-20.83	-20.88	0.983	-0.9559	0.9368	-0.3081	0.4874	0.117	1.404	-0.323	0.8211	0.21	1.67	0.02471	0.9523	0.0008699	1.762	-0.2254	1.5	-0.1361	1.381	-0.9042	1.497	0.005135
306	3	4	1	0.5996	-3.845	1.372	-0.1993	-36.69	14.43	0.3775	-0.6634	-20.39	-20.16	0.9515	-1.031	0.9454	-0.3344	0.4922	0.1247	1.415	-0.3413	0.8172	0.2265	1.665	0.003145	0.9482	0.01215	1.802	-0.2156	1.503	-0.1561	1.383	-0.9136	1.499	-0.0172
306	3	4	1	0.3068	-3.191	1.358	-0.2112	-34.34	13.51	0.08159	-0.1789	-19.37	-18.85	0.9015	-1.047	0.9496	-0.3491	0.4972	0.1344	1.407	-0.3454	0.8095	0.2452	1.65	-0.01743	0.9402	0.02503	1.829	-0.2185	1.507	-0.1739	1.381	-0.9267	1.504	-0.04276
306	3	4	1	0.02347	-2.434	1.349	-0.2256	-30.98	12.19	-0.1972	0.3407	-17.81	-17.04	0.837	-0.9933	0.9491	-0.3494	0.5024	0.1471	1.379	-0.3357	0.7992	0.2658	1.627	-0.03658	0.9295	0.03959	1.843	-0.2326	1.512	-0.1886	1.377	-0.9429	1.511	-0.06992
306	3	4	1	-0.2179	-1.672	1.343	-0.2406	-26.81	10.55	-0.4293	0.8389	-15.79	-14.82	0.7589	-0.8634	0.943	-0.3334	0.5078	0.1631	1.334	-0.3149	0.7881	0.2875	1.597	-0.05431	0.9177	0.05557	1.845	-0.2554	1.518	-0.1996	1.37	-0.9612	1.521	-0.09695
306	3	4	1	-0.3824	-0.9969	1.34	-0.2539	-22.11	8.698	-0.5898	1.268	-13.41	-12.31	0.6627	-0.6532	0.9299	-0.3005	0.5132	0.1824	1.277	-0.289	0.7779	0.3092	1.564	-0.07109	0.9062	0.07234	1.837	-0.2838	1.525	-0.2068	1.361	-0.9809	1.534	-0.1222
306	3	4	1	-0.4411	-0.4744	1.336	-0.2636	-17.23	6.78	-0.6647	1.602	-10.83	-9.683	0.5394	-0.3625	0.9078	-0.2509	0.5186	0.2041	1.213	-0.2655	0.7702	0.3295	1.53	-0.08764	0.8961	0.08898	1.822	-0.3146	1.532	-0.2104	1.349	-1.001	1.547	-0.144
306	3	4	1	-0.3793	-0.1305	1.332	-0.2685	-12.59	4.951	-0.655	1.834	-8.287	-7.15	0.3776	0.003125	0.8748	-0.1868	0.5235	0.2274	1.15	-0.2522	0.7663	0.3471	1.498	-0.1049	0.8886	0.1044	1.801	-0.3451	1.538	-0.2111	1.335	-1.021	1.559	-0.1614
306	3	4	1	-0.2025	0.05001	1.325	-0.268	-8.57	3.371	-0.5759	1.983	-6.062	-4.917	0.1682	0.4297	0.8301	-0.1116	0.5276	0.2507	1.096	-0.2558	0.767	0.3608	1.471	-0.1236	0.8839	0.1175	1.778	-0.3732	1.541	-0.2098	1.317	-1.041	1.568	-0.1735
306	3	4	1	0.06623	0.1119	1.315	-0.2626	-5.486	2.158	-0.4538	2.079	-4.426	-3.155	-0.09144	0.8942	0.7741	-0.0307	0.5304	0.2726	1.055	-0.28	0.7722	0.3699	1.451	-0.1443	0.8823	0.1274	1.755	-0.3978	1.54	-0.2078	1.297	-1.059	1.574	-0.1804
306	3	4	1	0.3934	0.112	1.304	-0.2535	-3.454	1.359	-0.319	2.153	-3.52	-1.939	-0.3941	1.366	0.7093	0.04992	0.5313	0.2917	1.031	-0.3248	0.7813	0.3744	1.438	-0.1672	0.883	0.1335	1.733	-0.419	1.535	-0.2066	1.274	-1.077	1.574	-0.1825
306	3	4	1	0.7465	0.1014	1.291	-0.2425	-2.379	0.9358	-0.1981	2.233	-3.275	-1.242	-0.7225	1.811	0.6397	0.1242	0.5297	0.3071	1.025	-0.3864	0.7927	0.3746	1.433	-0.1921	0.885	0.1357	1.715	-0.4378	1.524	-0.2073	1.251	-1.095	1.568	-0.1808
306	3	4	1	1.104	0.1149	1.279	-0.2321	-2.018	0.7939	-0.1078	2.332	-3.448	-0.9555	-1.052	2.198	0.5709	0.1872	0.5251	0.3179	1.036	-0.4585	0.8045	0.3714	1.435	-0.2182	0.8871	0.1341	1.701	-0.4557	1.507	-0.2109	1.229	-1.112	1.556	-0.1766
306	3	4	1	1.464	0.1666	1.268	-0.2245	-2.076	0.8168	-0.05145	2.454	-3.726	-0.9484	-1.356	2.506	0.5084	0.2358	0.5172	0.324	1.058	-0.5331	0.8146	0.366	1.442	-0.2446	0.8878	0.1294	1.692	-0.4749	1.487	-0.218	1.208	-1.129	1.538	-0.1716
306	3	4	1	1.838	0.2526	1.261	-0.2215	-2.293	0.9022	-0.01912	2.59	-3.829	-1.109	-1.61	2.727	0.4578	0.2692	0.5063	0.3255	1.087	-0.6027	0.821	0.3595	1.451	-0.2704	0.8861	0.1224	1.687	-0.4973	1.464	-0.2289	1.191	-1.146	1.516	-0.1675
306	3	4	1	2.255	0.3572	1.258	-0.2243	-2.485	0.9775	0.008372	2.728	-3.546	-1.368	-1.798	2.863	0.4234	0.2884	0.4929	0.3228	1.12	-0.661	0.8226	0.353	1.461	-0.2949	0.8813	0.1141	1.688	-0.5246	1.44	-0.2435	1.178	-1.165	1.492	-0.1657
306	3	4	1	2.741	0.4576	1.261	-0.2329	-2.549	1.003	0.05357	2.85	-2.75	-1.694	-1.911	2.926	0.4079	0.2959	0.4783	0.3168	1.151	-0.7042	0.8188	0.3473	1.472	-0.3177	0.8735	0.1053	1.693	-0.5578	1.417	-0.2614	1.17	-1.184	1.468	-0.1675
306	3	4	1	3.315	0.5282	1.27	-0.2467	-2.454	0.9653	0.1363	2.939	-1.407	-2.08	-1.949	2.932	0.4123	0.2942	0.4637	0.3086	1.178	-0.7305	0.8103	0.3428	1.481	-0.3384	0.8634	0.09679	1.701	-0.5971	1.398	-0.2819	1.165	-1.204	1.448	-0.1737
306	3	4	1	3.972	0.5418	1.285	-0.2639	-2.218	0.8725	0.2688	2.979	0.4045	-2.516	-1.917	2.892	0.4362	0.2856	0.4506	0.2994	1.199	-0.7404	0.7984	0.3399	1.489	-0.3571	0.8524	0.08938	1.712	-0.6415	1.385	-0.3041	1.164	-1.226	1.434	-0.184
306	3	4	1	4.682	0.4699	1.306	-0.2826	-1.888	0.7428	0.4533	2.952	2.438	-2.948	-1.82	2.813	0.4779	0.2713	0.4403	0.2907	1.215	-0.7355	0.785	0.3387	1.496	-0.3739	0.842	0.0836	1.726	-0.6894	1.378	-0.3267	1.166	-1.248	1.427	-0.1978
306	3	4	1	5.386	0.2857	1.334	-0.3006	-1.524	0.5995	0.6812	2.843	4.235	-3.253	-1.668	2.696	0.5349	0.2515	0.4341	0.2837	1.226	-0.7185	0.7722	0.3393	1.503	-0.389	0.8341	0.0799	1.741	-0.7378	1.378	-0.3481	1.17	-1.272	1.428	-0.2134
306	3	4	1	6.005	-0.03021	1.367	-0.3161	-1.18	0.464	0.9352	2.642	5.137	-3.227	-1.465	2.539	0.6045	0.2256	0.4328	0.2798	1.234	-0.6919	0.7623	0.3419	1.509	-0.4027	0.8305	0.07852	1.757	-0.7838	1.384	-0.3664	1.175	-1.296	1.438	-0.2287
306	3	4	1	6.457	-0.4821	1.409	-0.3274	-0.8952	0.3521	1.192	2.348	4.457	-2.642	-1.218	2.338	0.6839	0.1929	0.4372	0.2796	1.24	-0.6584	0.7571	0.3463	1.515	-0.4155	0.8324	0.07954	1.774	-0.8243	1.397	-0.3799	1.182	-1.32	1.457	-0.2411
306	3	4	1	6.678	-1.053	1.458	-0.3335	-0.6902	0.2715	1.426	1.975	1.809	-1.374	-0.9305	2.096	0.7703	0.153	0.4477	0.2836	1.246	-0.6201	0.7579	0.3526	1.522	-0.4279	0.841	0.08281	1.791	-0.8573	1.415	-0.387	1.191	-1.341	1.483	-0.2484
306	3	4	1	6.648	-1.705	1.516	-0.334	-0.5635	0.2216	1.617	1.548	-2.63	0.5023	-0.6117	1.821	0.8606	0.1068	0.4643	0.2919	1.253	-0.5793	0.7653	0.3605	1.529	-0.4403	0.8564	0.08801	1.806	-0.8818	1.438	-0.3866	1.202	-1.359	1.516	-0.2491
306	3	4	1	6.398	-2.388	1.58	-0.3289	-0.4978	0.1958	1.757	1.105	-8.209	2.739	-0.2733	1.534	0.9514	0.05674	0.4867	0.3041	1.263	-0.5382	0.7791	0.3698	1.536	-0.4531	0.8782	0.09469	1.819	-0.8983	1.464	-0.3784	1.216	-1.373	1.555	-0.2422
306	3	4	1	6.009	-3.051	1.65	-0.3188	-0.4668	0.1836	1.848	0.6847	-14.13	5.044	0.06813	1.257	1.039	0.006205	0.5138	0.3192	1.275	-0.4986	0.7982	0.3802	1.542	-0.4663	0.9049	0.1022	1.827	-0.9087	1.494	-0.3629	1.233	-1.384	1.596	-0.2282
306	3	4	1	5.591	-3.654	1.722	-0.3048	-0.4426	0.1741	1.91	0.3186	-19.72	7.179	0.3925	1.022	1.118	-0.04053	0.5444	0.336	1.289	-0.4624	0.8206	0.3913	1.547	-0.4798	0.9344	0.1098	1.828	-0.9159	1.524	-0.3412	1.253	-1.392	1.639	-0.2083
306	3	4	1	5.258	-4.175	1.789	-0.2883	-0.4023	0.1582	1.971	0.02671	-24.53	8.99	0.6792	0.8528	1.185	-0.07932	0.5765	0.3529	1.305	-0.4308	0.8435	0.4025	1.55	-0.4933	0.9638	0.1167	1.822	-0.9232	1.553	-0.3156	1.274	-1.398	1.679	-0.1852
306	3	4	1	5.117	-4.615	1.848	-0.2708	-0.3317	0.1305	2.062	-0.1878	-28.28	10.39	0.9108	0.7715	1.237	-0.1069	0.6079	0.3683	1.321	-0.4039	0.864	0.4131	1.55	-0.5063	0.9899	0.1217	1.807	-0.9343	1.578	-0.289	1.295	-1.403	1.714	-0.1624
306	3	4	1	5.25	-4.993	1.892	-0.254	-0.2273	0.08941	2.214	-0.3374	-30.84	11.34	1.076	0.7871	1.272	-0.1215	0.6362	0.3806	1.333	-0.3803	0.8788	0.4223	1.546	-0.5182	1.01	0.1241	1.782	-0.9519	1.597	-0.2648	1.315	-1.41	1.742	-0.1438
306	3	4	1	5.707	-5.347	1.916	-0.2395	-0.09508	0.03739	2.444	-0.4457	-32.17	11.83	1.171	0.8965	1.29	-0.1232	0.659	0.3888	1.336	-0.3565	0.8852	0.4294	1.538	-0.5285	1.02	0.1231	1.75	-0.9779	1.608	-0.2461	1.331	-1.421	1.758	-0.1335
306	3	4	1	6.505	-5.718	1.919	-0.2288	0.05258	-0.02068	2.755	-0.5397	-32.27	11.86	1.203	1.083	1.291	-0.1138	0.6745	0.3922	1.323	-0.328	0.8814	0.4338	1.526	-0.5367	1.019	0.1182	1.713	-1.013	1.609	-0.2357	1.342	-1.435	1.763	-0.1343
306	3	4	1	7.614	-6.141	1.899	-0.2228	0.2003	-0.07877	3.133	-0.6403	-31.18	11.45	1.185	1.32	1.279	-0.09665	0.6813	0.3912	1.289	-0.2899	0.8667	0.4353	1.51	-0.5423	1.006	0.1097	1.672	-1.055	1.599	-0.2349	1.348	-1.455	1.756	-0.1478
306	3	4	1	8.951	-6.624	1.859	-0.2219	0.3334	-0.1311	3.538	-0.7536	-29	10.61	1.139	1.569	1.258	-0.07613	0.6792	0.3864	1.228	-0.2381	0.8419	0.434	1.49	-0.545	0.9822	0.09803	1.631	-1.103	1.58	-0.2436	1.347	-1.477	1.737	-0.1735
306	3	4	1	10.38	-7.138	1.803	-0.2259	0.441	-0.1734	3.917	-0.8664	-25.84	9.398	1.09	1.791	1.233	-0.05719	0.669	0.3792	1.14	-0.1712	0.8089	0.4306	1.468	-0.5448	0.9498	0.08438	1.593	-1.152	1.553	-0.2599	1.34	-1.502	1.709	-0.2088
306	3	4	1	11.71	-7.614	1.738	-0.2338	0.5171	-0.2034	4.206	-0.9482	-21.86	7.858	1.062	1.947	1.21	-0.04471	0.6526	0.371	1.029	-0.09058	0.7713	0.4257	1.446	-0.5417	0.9123	0.0701	1.561	-1.198	1.522	-0.2806	1.328	-1.527	1.674	-0.2496
306	3	4	1	12.73	-7.954	1.67	-0.244	0.561	-0.2206	4.344	-0.9593	-17.26	6.073	1.076	2.002	1.194	-0.04301	0.6328	0.3635	0.9033	-0.001214	0.7331	0.4205	1.426	-0.5363	0.8742	0.05671	1.535	-1.238	1.49	-0.3017	1.311	-1.55	1.636	-0.2909
306	3	4	1	13.26	-8.055	1.608	-0.2547	0.5765	-0.2267	4.289	-0.8618	-12.31	4.142	1.147	1.934	1.189	-0.0556	0.6127	0.3581	0.7755	0.08918	0.6986	0.4159	1.408	-0.5292	0.8398	0.04556	1.517	-1.269	1.461	-0.3192	1.292	-1.567	1.598	-0.3278
306	3	4	1	13.18	-7.841	1.558	-0.2645	0.5702	-0.2243	4.024	-0.6327	-7.327	2.193	1.281	1.731	1.197	-0.08486	0.5952	0.3557	0.6608	0.1712	0.6715	0.4127	1.395	-0.5212	0.8129	0.0377	1.506	-1.289	1.438	-0.3296	1.271	-1.578	1.563	-0.356
306	3	4	1	12.47	-7.288	1.524	-0.2726	0.5499	-0.2163	3.563	-0.2714	-2.698	0.3766	1.473	1.395	1.22	-0.1318	0.5823	0.3569	0.5738	0.2354	0.6539	0.4117	1.387	-0.5132	0.7957	0.0336	1.502	-1.3	1.422	-0.3308	1.25	-1.582	1.533	-0.3726
306	3	4	1	11.22	-6.432	1.507	-0.2792	0.5234	-0.2059	2.955	0.1964	1.166	-1.145	1.712	0.9437	1.254	-0.1956	0.5751	0.3614	0.5261	0.2737	0.6465	0.4131	1.384	-0.506	0.7888	0.03315	1.501	-1.302	1.413	-0.3219	1.229	-1.577	1.508	-0.3764
306	3	4	1	9.628	-5.369	1.507	-0.2855	0.4969	-0.1956	2.27	0.7223	3.876	-2.217	1.974	0.4099	1.297	-0.2732	0.573	0.3686	0.5238	0.2811	0.648	0.4168	1.384	-0.4998	0.7907	0.03564	1.502	-1.299	1.411	-0.3037	1.209	-1.566	1.487	-0.3679
306	3	4	1	7.904	-4.229	1.521	-0.2934	0.4749	-0.187	1.589	1.244	5.138	-2.725	2.229	-0.1606	1.341	-0.3591	0.5742	0.3774	0.5664	0.2561	0.6553	0.4223	1.385	-0.4947	0.7982	0.03995	1.499	-1.291	1.411	-0.2783	1.189	-1.549	1.467	-0.3493
306	3	4	1	6.272	-3.152	1.543	-0.3047	0.4598	-0.181	0.9912	1.697	4.844	-2.624	2.447	-0.7139	1.378	-0.4454	0.5762	0.3863	0.6467	0.2012	0.6643	0.429	1.383	-0.4902	0.8072	0.04481	1.491	-1.283	1.409	-0.2486	1.168	-1.527	1.446	-0.3237
306	3	4	1	4.916	-2.266	1.566	-0.3206	0.4521	-0.178	0.5374	2.027	3.101	-1.958	2.596	-1.195	1.4	-0.523	0.576	0.3944	0.7521	0.1223	0.6705	0.4363	1.377	-0.4856	0.8133	0.04906	1.474	-1.274	1.401	-0.2181	1.146	-1.502	1.421	-0.2952
306	3	4	1	3.954	-1.658	1.584	-0.3411	0.4509	-0.1775	0.2628	2.203	0.2164	-0.8426	2.655	-1.556	1.4	-0.5831	0.5712	0.4008	0.8662	0.02818	0.6701	0.4435	1.364	-0.4799	0.8127	0.05194	1.448	-1.265	1.385	-0.19	1.122	-1.477	1.389	-0.2677
306	3	4	1	3.436	-1.366	1.591	-0.3653	0.4546	-0.1788	0.1718	2.221	-3.392	0.5598	2.612	-1.762	1.375	-0.6179	0.5603	0.405	0.9717	-0.07048	0.6605	0.4503	1.344	-0.4722	0.8034	0.0532	1.415	-1.256	1.359	-0.1667	1.097	-1.451	1.351	-0.2444
306	3	4	1	3.341	-1.366	1.584	-0.391	0.4612	-0.1813	0.2407	2.106	-7.281	2.079	2.471	-1.793	1.322	-0.6227	0.543	0.4073	1.053	-0.1623	0.6411	0.4565	1.317	-0.4619	0.7853	0.05313	1.377	-1.244	1.325	-0.15	1.072	-1.428	1.308	-0.2279
306	3	4	1	3.594	-1.585	1.563	-0.4155	0.4687	-0.1841	0.4249	1.905	-11.05	3.56	2.247	-1.645	1.247	-0.5956	0.5206	0.4083	1.098	-0.2361	0.6133	0.4623	1.285	-0.4489	0.7601	0.05245	1.339	-1.229	1.286	-0.1405	1.049	-1.407	1.264	-0.2194
306	3	4	1	4.086	-1.913	1.53	-0.436	0.4757	-0.1867	0.6704	1.678	-14.38	4.88	1.962	-1.329	1.156	-0.5384	0.4954	0.4089	1.1	-0.2824	0.5802	0.4679	1.25	-0.4336	0.7316	0.05214	1.306	-1.209	1.249	-0.138	1.03	-1.389	1.223	-0.219
306	3	4	1	4.696	-2.229	1.49	-0.45	0.4811	-0.1887	0.9236	1.483	-17.04	5.948	1.645	-0.8703	1.058	-0.4557	0.4703	0.4102	1.059	-0.2943	0.5462	0.4737	1.217	-0.417	0.7042	0.05324	1.283	-1.185	1.218	-0.1414	1.017	-1.376	1.19	-0.2258
306	3	4	1	5.311	-2.419	1.448	-0.4555	0.4845	-0.19	1.139	1.372	-18.88	6.706	1.325	-0.3048	0.9618	-0.3549	0.4486	0.4132	0.9825	-0.269	0.516	0.48	1.189	-0.4004	0.6829	0.05668	1.276	-1.157	1.201	-0.1494	1.015	-1.367	1.173	-0.238
306	3	4	1	5.84	-2.401	1.412	-0.4517	0.4861	-0.1907	1.284	1.373	-19.83	7.123	1.031	0.32	0.8775	-0.2458	0.4331	0.4187	0.8825	-0.2083	0.4937	0.4871	1.169	-0.3849	0.6715	0.06311	1.287	-1.127	1.203	-0.16	1.024	-1.362	1.173	-0.2533
306	3	4	1	6.213	-2.139	1.386	-0.4385	0.486	-0.1909	1.338	1.496	-19.89	7.199	0.7844	0.9486	0.8123	-0.1391	0.4256	0.427	0.7746	-0.119	0.4826	0.4952	1.158	-0.3718	0.6729	0.07279	1.318	-1.096	1.227	-0.1711	1.045	-1.36	1.195	-0.2689
306	3	4	1	6.395	-1.652	1.376	-0.417	0.4849	-0.1908	1.294	1.726	-19.14	6.96	0.6004	1.524	0.7707	-0.04512	0.4273	0.438	0.6757	-0.01239	0.4842	0.5043	1.159	-0.3619	0.688	0.08551	1.367	-1.066	1.271	-0.1803	1.077	-1.36	1.237	-0.2819
306	3	4	1	6.387	-1.026	1.383	-0.3889	0.4833	-0.1907	1.159	2.025	-17.72	6.457	0.4829	1.996	0.7539	0.02776	0.4378	0.4513	0.6004	0.09718	0.4982	0.5142	1.169	-0.3558	0.7157	0.1006	1.432	-1.039	1.335	-0.1858	1.118	-1.359	1.296	-0.2896
306	3	4	1	6.24	-0.4188	1.411	-0.3569	0.4817	-0.1906	0.9559	2.333	-15.81	5.767	0.4236	2.333	0.7593	0.07498	0.4558	0.4663	0.5588	0.1948	0.5229	0.5244	1.187	-0.3536	0.7534	0.1172	1.506	-1.016	1.412	-0.1859	1.163	-1.355	1.37	-0.29
306	3	4	1	6.055	-0.04967	1.46	-0.3238	0.4803	-0.1906	0.7271	2.575	-13.68	4.988	0.4033	2.53	0.7811	0.09657	0.4791	0.4821	0.5539	0.2678	0.5549	0.5345	1.21	-0.3551	0.7969	0.1339	1.584	-0.9961	1.495	-0.1798	1.208	-1.348	1.45	-0.282
306	3	4	1	5.968	-0.1591	1.527	-0.293	0.4793	-0.1905	0.5297	2.664	-11.61	4.226	0.3973	2.607	0.8115	0.09696	0.5046	0.4981	0.5812	0.3083	0.59	0.5439	1.234	-0.3594	0.8413	0.1497	1.658	-0.9812	1.576	-0.1674	1.248	-1.335	1.529	-0.2658
306	3	4	1	6.102	-0.9394	1.611	-0.2677	0.4786	-0.1903	0.4292	2.516	-9.826	3.58	0.3828	2.602	0.8423	0.08386	0.529	0.514	0.6296	0.3145	0.623	0.5523	1.256	-0.3653	0.8812	0.1634	1.72	-0.9712	1.647	-0.1496	1.278	-1.319	1.601	-0.2428
306	3	4	1	6.518	-2.457	1.706	-0.2505	0.4779	-0.1897	0.4847	2.068	-8.523	3.117	0.3452	2.561	0.8661	0.0664	0.5492	0.5292	0.6845	0.2906	0.6492	0.5595	1.271	-0.3715	0.9115	0.1743	1.764	-0.9661	1.701	-0.1283	1.293	-1.299	1.657	-0.2154
306	3	4	1	7.177	-4.616	1.809	-0.2436	0.4772	-0.1885	0.732	1.299	-7.75	2.857	0.2804	2.527	0.8776	0.05341	0.5627	0.5436	0.7307	0.2445	0.6643	0.5655	1.276	-0.3765	0.9283	0.1817	1.785	-0.9656	1.731	-0.1055	1.291	-1.28	1.692	-0.1867
306	3	4	1	7.958	-7.178	1.91	-0.2479	0.4763	-0.1866	1.17	0.2424	-7.434	2.766	0.1924	2.531	0.8736	0.05207	0.5675	0.5568	0.757	0.1857	0.6657	0.5702	1.27	-0.3794	0.9289	0.1854	1.778	-0.9689	1.733	-0.08365	1.269	-1.263	1.701	-0.1597
306	3	4	1	8.705	-9.845	2.002	-0.2632	0.4751	-0.1843	1.759	-1.011	-7.396	2.774	0.0872	2.594	0.8528	0.06738	0.5631	0.5687	0.7578	0.1224	0.6521	0.5735	1.251	-0.3796	0.9128	0.1853	1.744	-0.9745	1.705	-0.06489	1.227	-1.251	1.681	-0.1371
306	3	4	1	9.285	-12.33	2.077	-0.2878	0.4737	-0.1818	2.428	-2.329	-7.401	2.785	-0.03389	2.726	0.8146	0.1022	0.5495	0.579	0.7343	0.0596	0.6244	0.575	1.22	-0.3774	0.881	0.1814	1.684	-0.9806	1.647	-0.05102	1.168	-1.246	1.633	-0.1209
306	3	4	1	9.619	-14.39	2.125	-0.3191	0.4725	-0.1796	3.098	-3.561	-7.197	2.701	-0.1786	2.933	0.7588	0.1577	0.5278	0.5873	0.6932	-0.0006216	0.5851	0.5743	1.18	-0.3734	0.8366	0.1738	1.602	-0.985	1.562	-0.04321	1.095	-1.247	1.558	-0.1123
306	3	4	1	9.69	-15.89	2.14	-0.3536	0.4718	-0.1784	3.697	-4.571	-6.547	2.432	-0.3631	3.219	0.6856	0.2336	0.4996	0.5934	0.6447	-0.05867	0.5377	0.5709	1.134	-0.3687	0.7833	0.1629	1.504	-0.9853	1.455	-0.0419	1.014	-1.253	1.46	-0.1113
306	3	4	1	9.538	-16.75	2.117	-0.3874	0.4723	-0.179	4.18	-5.258	-5.24	1.9	-0.6065	3.585	0.5957	0.328	0.4668	0.597	0.5992	-0.1155	0.486	0.5647	1.086	-0.3646	0.7254	0.1492	1.397	-0.9796	1.331	-0.04674	0.9296	-1.26	1.347	-0.1175
306	3	4	1	9.228	-16.94	2.054	-0.4171	0.4743	-0.1818	4.522	-5.569	-3.106	1.043	-0.9204	4.027	0.4918	0.4371	0.4314	0.5976	0.565	-0.1709	0.4338	0.5555	1.039	-0.3621	0.6668	0.1334	1.288	-0.9667	1.198	-0.05669	0.8488	-1.265	1.224	-0.1296
306	3	4	1	8.836	-16.49	1.954	-0.44	0.4781	-0.1873	4.724	-5.504	-0.0392	-0.1758	-1.3	4.527	0.3792	0.554	0.3949	0.5951	0.5466	-0.2223	0.3834	0.5435	0.994	-0.3621	0.6104	0.1165	1.183	-0.9466	1.061	-0.07018	0.7766	-1.263	1.098	-0.1462
306	3	4	1	8.42	-15.49	1.82	-0.4546	0.4836	-0.1952	4.795	-5.109	3.944	-1.745	-1.717	5.05	0.2659	0.6688	0.3585	0.5888	0.5447	-0.2652	0.3361	0.5289	0.9528	-0.3652	0.5574	0.09902	1.086	-0.9206	0.9273	-0.08526	0.7166	-1.249	0.9751	-0.1658
306	3	4	1	8.015	-14.02	1.659	-0.4609	0.4903	-0.2047	4.745	-4.468	8.574	-3.558	-2.126	5.543	0.1613	0.769	0.3226	0.5784	0.5569	-0.2948	0.2919	0.5118	0.9141	-0.3719	0.5077	0.08162	0.9966	-0.8918	0.8004	-0.09982	0.6702	-1.222	0.8581	-0.1869
306	3	4	1	7.626	-12.23	1.478	-0.4605	0.4969	-0.2141	4.587	-3.688	13.11	-5.323	-2.473	5.941	0.0738	0.8419	0.2866	0.5634	0.5797	-0.3084	0.2492	0.4923	0.8758	-0.3822	0.4595	0.06442	0.9125	-0.8645	0.6825	-0.1117	0.6361	-1.18	0.7486	-0.2085
306	3	4	1	7.235	-10.27	1.285	-0.4563	0.5019	-0.2212	4.333	-2.882	16.12	-6.48	-2.713	6.188	0.008036	0.8765	0.2493	0.5432	0.6089	-0.3071	0.2059	0.47	0.8351	-0.396	0.4101	0.04714	0.8279	-0.8438	0.5742	-0.1187	0.6103	-1.124	0.6454	-0.2296
306	3	4	1	6.817	-8.307	1.087	-0.4518	0.5035	-0.2232	4	-2.143	15.75	-6.309	-2.827	6.248	-0.03682	0.8673	0.2085	0.5177	0.64	-0.2964	0.1594	0.4444	0.7891	-0.4129	0.3563	0.02911	0.7351	-0.8347	0.4741	-0.1191	0.587	-1.057	0.5459	-0.2492
306	3	4	1	6.347	-6.516	0.8868	-0.4511	0.4995	-0.2174	3.609	-1.53	10.97	-4.4	-2.824	6.123	-0.06712	0.8151	0.162	0.4866	0.6681	-0.2848	0.1073	0.4152	0.7354	-0.4319	0.2954	0.009551	0.6268	-0.841	0.38	-0.1114	0.5591	-0.9864	0.4466	-0.2667
306	3	4	1	5.823	-5.03	0.69	-0.4573	0.4884	-0.2015	3.188	-1.062	2.562	-1.069	-2.741	5.85	-0.09284	0.7272	0.1078	0.4503	0.6867	-0.2808	0.04817	0.3822	0.6727	-0.4514	0.2256	-0.01208	0.4978	-0.8643	0.2895	-0.09525	0.5198	-0.9169	0.3448	-0.2817
306	3	4	1	5.272	-3.94	0.4995	-0.4726	0.4691	-0.1742	2.77	-0.721	-7.55	2.927	-2.628	5.487	-0.1244	0.616	0.04524	0.4099	0.6883	-0.29	-0.01836	0.3462	0.6014	-0.4692	0.1468	-0.03567	0.3475	-0.9038	0.2011	-0.07124	0.4642	-0.8561	0.2391	-0.2941
306	3	4	1	4.756	-3.296	0.3187	-0.4972	0.4419	-0.1359	2.394	-0.481	-17.67	6.92	-2.527	5.1	-0.1693	0.4957	-0.02483	0.3674	0.6655	-0.313	-0.0909	0.309	0.5235	-0.4823	0.06116	-0.06012	0.1804	-0.9555	0.1146	-0.04131	0.3903	-0.8106	0.1309	-0.3041
306	3	4	1	4.373	-3.131	0.1517	-0.5297	0.4083	-0.0889	2.105	-0.3244	-26.8	10.52	-2.465	4.74	-0.2294	0.3795	-0.09958	0.3252	0.6138	-0.3455	-0.1664	0.2736	0.4428	-0.4876	-0.02698	-0.08324	0.006722	-1.013	0.03158	-0.008401	0.2996	-0.7853	0.0238	-0.3118
306	3	4	1	4.231	-3.473	0.003812	-0.5666	0.3714	-0.03738	1.946	-0.2583	-34.45	13.53	-2.446	4.433	-0.3001	0.2769	-0.1743	0.2865	0.5336	-0.3798	-0.24	0.2438	0.3647	-0.4822	-0.1116	-0.102	-0.1595	-1.068	-0.0448	0.02396	0.1974	-0.7832	-0.07672	-0.317
306	3	4	1	4.425	-4.343	-0.1188	-0.6038	0.3352	0.01289	1.956	-0.3142	-40.44	15.88	-2.45	4.174	-0.3711	0.1926	-0.2429	0.2547	0.4326	-0.4083	-0.3062	0.2236	0.2951	-0.464	-0.1855	-0.1131	-0.3024	-1.113	-0.1102	0.05226	0.09164	-0.8043	-0.164	-0.3192
306	3	4	1	4.999	-5.721	-0.2097	-0.6368	0.3041	0.0557	2.155	-0.532	-44.72	17.55	-2.445	3.933	-0.4291	0.1256	-0.2989	0.2323	0.3257	-0.4266	-0.3588	0.2165	0.2404	-0.4329	-0.2418	-0.1135	-0.407	-1.14	-0.1598	0.0736	-0.008203	-0.846	-0.2313	-0.3176
306	3	4	1	5.921	-7.518	-0.2632	-0.662	0.2822	0.0857	2.534	-0.9347	-47.3	18.55	-2.404	3.668	-0.4617	0.0715	-0.3363	0.221	0.234	-0.4365	-0.3924	0.2248	0.2057	-0.3901	-0.2745	-0.1013	-0.4621	-1.146	-0.1893	0.08626	-0.09259	-0.9035	-0.2729	-0.3111
306	3	4	1	7.088	-9.567	-0.2752	-0.6766	0.2716	0.09977	3.051	-1.505	-48.25	18.89	-2.313	3.341	-0.4603	0.02413	-0.3507	0.2211	0.1814	-0.4472	-0.4031	0.2488	0.1951	-0.3391	-0.2795	-0.07628	-0.4613	-1.128	-0.1949	0.09	-0.1533	-0.9706	-0.2844	-0.2992
306	3	4	1	8.364	-11.65	-0.244	-0.6798	0.2726	0.09791	3.638	-2.175	-47.61	18.59	-2.189	2.938	-0.4237	-0.02098	-0.3402	0.2313	0.1908	-0.4739	-0.3887	0.2867	0.2106	-0.2843	-0.2555	-0.03992	-0.4042	-1.089	-0.1746	0.08611	-0.1844	-1.041	-0.2635	-0.2818
306	3	4	1	9.628	-13.55	-0.1707	-0.6716	0.2831	0.08325	4.222	-2.845	-45.49	17.7	-2.079	2.482	-0.359	-0.06408	-0.3054	0.2492	0.2801	-0.5353	-0.3493	0.3346	0.2519	-0.2312	-0.2032	0.004727	-0.2959	-1.035	-0.1273	0.07726	-0.1827	-1.107	-0.2091	-0.2594
306	3	4	1	10.8	-15.1	-0.05886	-0.6532	0.2995	0.061	4.751	-3.404	-42	16.27	-2.052	2.035	-0.2802	-0.0997	-0.2496	0.2716	0.4577	-0.6492	-0.2869	0.3875	0.3171	-0.1849	-0.126	0.05348	-0.146	-0.9732	-0.05364	0.06706	-0.1479	-1.164	-0.1222	-0.2328
306	3	4	1	11.88	-16.16	0.08614	-0.6258	0.318	0.03678	5.204	-3.766	-37.29	14.35	-2.177	1.686	-0.2048	-0.1173	-0.178	0.2954	0.7189	-0.8263	-0.2051	0.4396	0.4024	-0.1498	-0.02844	0.1018	0.03303	-0.9114	0.04491	0.05941	-0.08197	-1.207	-0.004515	-0.2031
306	3	4	1	12.88	-16.72	0.258	-0.5908	0.3353	0.0149	5.593	-3.887	-31.57	12.06	-2.498	1.525	-0.1494	-0.1037	-0.09696	0.3181	1.045	-1.066	-0.1086	0.4857	0.5029	-0.1288	0.08368	0.1455	0.2275	-0.8573	0.1661	0.05788	0.01088	-1.233	0.141	-0.1713
306	3	4	1	13.85	-16.76	0.45	-0.5492	0.3499	-0.002776	5.948	-3.771	-25.17	9.519	-3.023	1.624	-0.1244	-0.04735	-0.01289	0.3381	1.402	-1.353	-0.002548	0.5217	0.613	-0.1228	0.2044	0.1816	0.4243	-0.8167	0.307	0.06504	0.1252	-1.241	0.3109	-0.1384
306	3	4	1	14.82	-16.34	0.6561	-0.502	0.3622	-0.01707	6.301	-3.466	-18.5	6.905	-3.712	2.016	-0.1309	0.05774	0.06846	0.3553	1.751	-1.657	0.1077	0.5456	0.7267	-0.1306	0.3278	0.2084	0.6122	-0.7932	0.4643	0.08201	0.2548	-1.231	0.5007	-0.1051
306	3	4	1	15.75	-15.53	0.8704	-0.4503	0.3737	-0.03086	6.667	-3.048	-12.12	4.44	-4.489	2.688	-0.1602	0.2091	0.143	0.3703	2.049	-1.942	0.2172	0.5575	0.8384	-0.1488	0.449	0.2265	0.7826	-0.7874	0.634	0.1084	0.3927	-1.204	0.7054	-0.07195
306	3	4	1	16.55	-14.42	1.088	-0.3952	0.3865	-0.04786	7.034	-2.603	-6.645	2.36	-5.251	3.582	-0.1953	0.395	0.2086	0.385	2.26	-2.167	0.3216	0.56	0.943	-0.1724	0.5636	0.2377	0.9303	-0.7973	0.8115	0.1424	0.5323	-1.165	0.9186	-0.03865
306	3	4	1	17.07	-13.1	1.304	-0.3387	0.4024	-0.07122	7.357	-2.207	-2.594	0.8521	-5.888	4.595	-0.2156	0.5961	0.2654	0.401	2.365	-2.297	0.4178	0.5573	1.037	-0.1953	0.6689	0.2455	1.053	-0.8181	0.9914	0.1813	0.6668	-1.116	1.133	-0.004443
306	3	4	1	17.14	-11.62	1.515	-0.2833	0.4218	-0.1024	7.573	-1.904	-0.166	-0.02548	-6.294	5.593	-0.2011	0.7891	0.3153	0.4203	2.361	-2.311	0.504	0.5544	1.117	-0.2115	0.7633	0.2539	1.151	-0.8437	1.168	0.222	0.7902	-1.062	1.341	0.0321
306	3	4	1	16.61	-10.07	1.716	-0.2321	0.4443	-0.1407	7.611	-1.692	0.8266	-0.3702	-6.383	6.432	-0.1376	0.9508	0.3616	0.4438	2.264	-2.203	0.5795	0.5563	1.184	-0.2159	0.8465	0.2667	1.226	-0.8673	1.336	0.2618	0.8973	-1.005	1.534	0.07275
306	3	4	1	15.41	-8.474	1.906	-0.1889	0.4677	-0.1828	7.411	-1.523	0.8425	-0.3828	-6.108	6.979	-0.01924	1.063	0.4076	0.472	2.101	-1.983	0.6452	0.5669	1.237	-0.2053	0.9191	0.2868	1.282	-0.8827	1.489	0.2987	0.9842	-0.9495	1.706	0.1192
306	3	4	1	13.6	-6.84	2.082	-0.1571	0.4889	-0.2231	6.942	-1.313	0.3953	-0.2763	-5.473	7.15	0.15	1.115	0.4564	0.5047	1.906	-1.677	0.7026	0.5887	1.279	-0.1786	0.9826	0.3158	1.322	-0.8856	1.623	0.3318	1.049	-0.8983	1.849	0.1724
306	3	4	1	11.33	-5.138	2.24	-0.1394	0.5044	-0.2547	6.202	-0.9605	-0.107	-0.2076	-4.545	6.925	0.3579	1.106	0.51	0.5407	1.714	-1.317	0.7537	0.6218	1.313	-0.1373	1.038	0.3537	1.351	-0.8742	1.736	0.3607	1.092	-0.8539	1.962	0.2323
306	3	4	1	8.781	-3.293	2.38	-0.1367	0.5101	-0.2696	5.215	-0.3618	-0.4187	-0.2528	-3.437	6.362	0.5861	1.042	0.5689	0.5787	1.55	-0.9402	0.8003	0.6651	1.341	-0.08456	1.088	0.3991	1.373	-0.8497	1.828	0.3861	1.114	-0.8191	2.045	0.2971
306	3	4	1	6.107	-1.201	2.499	-0.148	0.5026	-0.26	4.019	0.5734	-0.4417	-0.4134	-2.293	5.576	0.8144	0.9394	0.6322	0.6169	1.435	-0.5822	0.8433	0.7156	1.365	-0.02493	1.132	0.4492	1.391	-0.8156	1.901	0.4084	1.118	-0.7964	2.099	0.3636
306	3	4	1	3.437	1.249	2.594	-0.1698	0.4791	-0.2195	2.665	1.913	-0.1855	-0.6371	-1.247	4.71	1.024	0.8157	0.6976	0.6537	1.376	-0.2714	0.8833	0.7697	1.388	0.03643	1.171	0.5009	1.409	-0.7771	1.955	0.4281	1.11	-0.7882	2.129	0.4277
306	3	4	1	0.8732	4.157	2.662	-0.1965	0.4381	-0.1447	1.206	3.695	0.2758	-0.8415	-0.4055	3.91	1.198	0.6915	0.7619	0.6877	1.368	-0.02642	0.9196	0.8236	1.409	0.09446	1.205	0.5508	1.428	-0.7401	1.996	0.4453	1.091	-0.7959	2.14	0.4847
306	3	4	1	-1.487	7.578	2.702	-0.221	0.3798	-0.0355	-0.2891	5.912	0.8397	-0.9375	0.1711	3.301	1.326	0.5871	0.8218	0.7183	1.401	0.1452	0.9511	0.8736	1.428	0.1447	1.232	0.5955	1.447	-0.7099	2.024	0.4596	1.067	-0.8199	2.136	0.5307
306	3	4	1	-3.51	11.48	2.71	-0.2362	0.3057	0.1032	-1.73	8.491	1.405	-0.8519	0.4648	2.979	1.403	0.5202	0.8735	0.745	1.458	0.2464	0.9763	0.9165	1.444	0.1837	1.252	0.6324	1.467	-0.6906	2.041	0.4705	1.037	-0.8585	2.119	0.5627
306	3	4	1	-4.964	15.63	2.686	-0.2354	0.2186	0.2622	-2.988	11.27	1.892	-0.5472	0.4912	3.006	1.428	0.5041	0.9141	0.7683	1.521	0.289	0.9933	0.9501	1.454	0.2092	1.263	0.6596	1.483	-0.684	2.047	0.4769	1.004	-0.9084	2.09	0.5793
306	3	4	1	-5.426	19.5	2.63	-0.2146	0.1224	0.4282	-3.881	13.95	2.26	-0.04292	0.2895	3.406	1.403	0.5463	0.941	0.7892	1.571	0.2904	1.001	0.9732	1.457	0.2202	1.264	0.676	1.493	-0.6902	2.038	0.4775	0.9672	-0.9643	2.048	0.5804
306	3	4	1	-4.2	22.02	2.542	-0.173	0.02043	0.5862	-4.175	16.11	2.52	0.5663	-0.08567	4.169	1.337	0.6463	0.9523	0.8085	1.594	0.2707	0.9967	0.9854	1.449	0.217	1.253	0.6814	1.491	-0.7076	2.013	0.4712	0.9264	-1.02	1.99	0.5669
306	3	4	1	-0.4954	21.77	2.427	-0.1136	-0.08486	0.7215	-3.642	17.22	2.731	1.099	-0.5646	5.231	1.241	0.7944	0.9469	0.8274	1.582	0.2492	0.9803	0.9874	1.429	0.2012	1.23	0.6764	1.475	-0.7333	1.967	0.4564	0.8813	-1.068	1.914	0.5404
306	3	4	1	5.794	17.9	2.287	-0.04363	-0.1926	0.8228	-2.199	16.88	2.995	1.299	-1.059	6.471	1.129	0.9713	0.9244	0.8461	1.53	0.242	0.9501	0.9807	1.395	0.175	1.192	0.6621	1.44	-0.7645	1.896	0.4323	0.8317	-1.104	1.816	0.5027
306	3	4	1	13.24	11.2	2.128	0.02646	-0.3034	0.8841	-0.07038	15.05	3.417	0.8903	-1.46	7.694	1.017	1.149	0.8854	0.8643	1.442	0.2594	0.9054	0.9671	1.345	0.1416	1.14	0.6401	1.384	-0.7984	1.799	0.3984	0.7774	-1.121	1.695	0.4561
306	3	4	1	19.3	3.708	1.955	0.08463	-0.4184	0.9055	2.202	12.14	4.044	-0.3213	-1.64	8.641	0.9209	1.295	0.8312	0.8805	1.326	0.3039	0.8457	0.9488	1.278	0.104	1.072	0.6123	1.306	-0.8334	1.674	0.355	0.7184	-1.117	1.55	0.4025
306	3	4	1	22.03	-2.729	1.774	0.1193	-0.5381	0.8938	3.983	8.804	4.819	-2.345	-1.484	9.038	0.8548	1.375	0.7641	0.8927	1.195	0.3698	0.7714	0.9281	1.195	0.06541	0.9884	0.5805	1.206	-0.8683	1.522	0.3036	0.6543	-1.094	1.384	0.3442
306	3	4	1	21.2	-7.348	1.586	0.1217	-0.661	0.8599	4.835	5.673	5.586	-4.978	-0.9419	8.681	0.8261	1.365	0.6873	0.8982	1.066	0.4428	0.6839	0.9068	1.099	0.02803	0.8917	0.5467	1.086	-0.9032	1.346	0.2462	0.5846	-1.054	1.199	0.2835
306	3	4	1	17.96	-10.26	1.397	0.08807	-0.7827	0.8174	4.649	3.145	6.161	-7.884	-0.08177	7.537	0.8332	1.252	0.6046	0.8949	0.959	0.5015	0.5862	0.8865	0.993	-0.006536	0.7846	0.5123	0.9493	-0.9383	1.153	0.1862	0.509	-1.004	0.9991	0.2227
306	3	4	1	13.61	-11.83	1.208	0.0202	-0.8956	0.7792	3.595	1.396	6.415	-10.71	0.9063	5.778	0.8644	1.044	0.5201	0.8809	0.8915	0.5207	0.4824	0.8678	0.8837	-0.03772	0.6711	0.4788	0.8009	-0.9739	0.9494	0.127	0.4279	-0.949	0.7915	0.1645
306	3	4	1	9.089	-12.4	1.02	-0.07444	-0.9901	0.7551	1.971	0.4442	6.311	-13.18	1.773	3.728	0.8996	0.7671	0.4379	0.8559	0.8761	0.4764	0.3777	0.851	0.777	-0.0658	0.5565	0.4471	0.6467	-1.01	0.744	0.07277	0.3421	-0.8978	0.5828	0.1113
306	3	4	1	4.901	-12.18	0.8341	-0.1844	-1.056	0.7494	0.08827	0.2286	5.898	-15.1	2.302	1.738	0.9144	0.4621	0.361	0.8207	0.9167	0.352	0.2776	0.8354	0.6792	-0.09174	0.4462	0.418	0.4927	-1.047	0.5457	0.0271	0.2535	-0.8559	0.3803	0.06582
306	3	4	1	1.292	-11.29	0.6528	-0.2969	-1.082	0.7598	-1.793	0.648	5.273	-16.39	2.378	0.09905	0.8873	0.1756	0.2915	0.7777	1.004	0.1445	0.1873	0.8203	0.5958	-0.1168	0.3452	0.3915	0.3449	-1.083	0.3625	-0.006945	0.1645	-0.8277	0.1904	0.03005
306	3	4	1	-1.635	-9.836	0.4787	-0.3997	-1.061	0.7777	-3.475	1.576	4.547	-17.03	1.997	-1.005	0.8053	-0.04955	0.2303	0.73	1.118	-0.1314	0.1109	0.8044	0.5304	-0.1425	0.2575	0.3677	0.2083	-1.117	0.2009	-0.02749	0.07807	-0.8148	0.01872	0.005608
306	3	4	1	-3.842	-7.905	0.3155	-0.4839	-0.9875	0.7902	-4.815	2.863	3.827	-17.04	1.24	-1.494	0.6685	-0.1828	0.177	0.6814	1.226	-0.4442	0.05071	0.7868	0.4846	-0.1696	0.1855	0.3462	0.0868	-1.148	0.06545	-0.03418	-0.002781	-0.8172	-0.1306	-0.006812
306	3	4	1	-5.321	-5.608	0.1673	-0.5444	-0.8623	0.7828	-5.713	4.329	3.201	-16.49	0.2425	-1.373	0.4905	-0.2115	0.1306	0.6357	1.294	-0.7501	0.007348	0.7668	0.4573	-0.1987	0.1302	0.3264	-0.01701	-1.175	-0.04164	-0.02826	-0.07527	-0.8326	-0.2553	-0.007628
306	3	4	1	-6.076	-3.084	0.03799	-0.5804	-0.6911	0.7432	-6.106	5.772	2.742	-15.49	-0.8439	-0.7132	0.2956	-0.1424	0.0897	0.5956	1.292	-1.003	-0.02059	0.7444	0.4455	-0.2293	0.0908	0.3077	-0.102	-1.197	-0.1204	-0.01243	-0.1372	-0.8581	-0.3544	0.001662
306	3	4	1	-6.115	-0.5156	-0.06985	-0.5943	-0.4854	0.6646	-5.973	6.98	2.503	-14.16	-1.869	0.3624	0.1137	0.001043	0.05336	0.5627	1.205	-1.161	-0.03589	0.7204	0.4446	-0.2601	0.06537	0.2899	-0.1681	-1.213	-0.173	0.009701	-0.1874	-0.8899	-0.4288	0.01878
306	3	4	1	-5.458	1.873	-0.1549	-0.5909	-0.2615	0.5479	-5.352	7.774	2.523	-12.67	-2.699	1.687	-0.02669	0.1841	0.02109	0.5375	1.035	-1.202	-0.04209	0.6959	0.4495	-0.2891	0.05142	0.2728	-0.2164	-1.222	-0.2029	0.03437	-0.2254	-0.9244	-0.4803	0.04124
306	3	4	1	-4.159	3.84	-0.2171	-0.5758	-0.03737	0.4011	-4.353	8.057	2.812	-11.17	-3.22	3.064	-0.104	0.368	-0.006815	0.5189	0.7993	-1.12	-0.04264	0.6727	0.4555	-0.3141	0.04642	0.2565	-0.2484	-1.223	-0.2145	0.05841	-0.252	-0.9579	-0.5117	0.06694
306	3	4	1	-2.346	5.187	-0.2575	-0.5544	0.1694	0.2378	-3.156	7.842	3.335	-9.804	-3.359	4.283	-0.1081	0.5181	-0.02945	0.5055	0.5324	-0.9317	-0.0402	0.6526	0.4593	-0.3332	0.0484	0.2414	-0.2661	-1.215	-0.2124	0.07988	-0.2684	-0.9873	-0.5262	0.09458
306	3	4	1	-0.2428	5.834	-0.2773	-0.5308	0.3447	0.0742	-1.974	7.259	3.99	-8.63	-3.094	5.162	-0.04241	0.6098	-0.04545	0.4953	0.2726	-0.6688	-0.03616	0.637	0.4595	-0.3449	0.05616	0.2281	-0.2709	-1.196	-0.2002	0.09814	-0.2762	-1.01	-0.5267	0.1238
306	3	4	1	1.84	5.872	-0.2777	-0.5079	0.4792	-0.07384	-0.9952	6.497	4.598	-7.589	-2.475	5.585	0.0784	0.6325	-0.0533	0.4867	0.05653	-0.3738	-0.03061	0.6269	0.4564	-0.3489	0.06932	0.2171	-0.2638	-1.167	-0.1806	0.1136	-0.2766	-1.024	-0.515	0.1548
306	3	4	1	3.591	5.532	-0.2593	-0.4865	0.5688	-0.1931	-0.3329	5.751	4.918	-6.508	-1.62	5.536	0.232	0.5891	-0.05161	0.4786	-0.08821	-0.09039	-0.02256	0.6228	0.452	-0.3456	0.08802	0.2091	-0.2451	-1.127	-0.1543	0.1274	-0.2699	-1.028	-0.492	0.1876
306	3	4	1	4.811	5.088	-0.2226	-0.466	0.6143	-0.2745	-0.007858	5.172	4.695	-5.132	-0.6928	5.096	0.3943	0.4932	-0.03945	0.4705	-0.1481	0.1446	-0.01048	0.6245	0.449	-0.3362	0.1126	0.2044	-0.214	-1.078	-0.1208	0.1401	-0.2559	-1.022	-0.4569	0.222
306	3	4	1	5.473	4.747	-0.1676	-0.4449	0.62	-0.3133	0.03535	4.841	3.719	-3.196	0.1478	4.409	0.5446	0.3641	-0.01654	0.4627	-0.1247	0.3069	0.007204	0.6315	0.4505	-0.3221	0.1433	0.2034	-0.1696	-1.021	-0.07848	0.1522	-0.2335	-1.009	-0.4085	0.2564
306	3	4	1	5.705	4.589	-0.09474	-0.4211	0.5923	-0.3092	-0.1014	4.773	1.877	-0.4992	0.7968	3.625	0.6698	0.2216	0.01652	0.4558	-0.03282	0.3878	0.03164	0.6429	0.4591	-0.3051	0.1799	0.206	-0.1108	-0.9618	-0.02551	0.163	-0.2016	-0.9892	-0.3452	0.2889
306	3	4	1	5.732	4.55	-0.004915	-0.3927	0.5387	-0.2656	-0.2969	4.912	-0.7951	2.991	1.225	2.858	0.7653	0.08202	0.05818	0.4509	0.1046	0.3932	0.06322	0.6575	0.4766	-0.2868	0.2214	0.2118	-0.03771	-0.9025	0.03894	0.1718	-0.16	-0.9661	-0.2666	0.3167
306	3	4	1	5.807	4.432	0.1001	-0.3587	0.4675	-0.1895	-0.4287	5.145	-4.021	6.993	1.472	2.171	0.8344	-0.04448	0.106	0.449	0.262	0.3404	0.1014	0.674	0.5035	-0.2688	0.2664	0.2203	0.04806	-0.8476	0.1142	0.1773	-0.1096	-0.9419	-0.1742	0.3375
306	3	4	1	6.16	3.942	0.2178	-0.3194	0.3869	-0.09087	-0.3875	5.307	-7.14	10.67	1.623	1.571	0.8861	-0.1544	0.1566	0.4512	0.4161	0.2522	0.1447	0.6912	0.5388	-0.252	0.3127	0.2306	0.1431	-0.8002	0.1974	0.1787	-0.05262	-0.9186	-0.07174	0.3497
306	3	4	1	6.923	2.779	0.3445	-0.2764	0.3057	0.01806	-0.09557	5.213	-9.013	12.48	1.774	1.028	0.9316	-0.2503	0.2065	0.4581	0.55	0.1526	0.1905	0.7082	0.5802	-0.2372	0.3578	0.2418	0.2421	-0.7623	0.2842	0.1759	0.006897	-0.897	0.03486	0.3529
306	3	4	1	8.049	0.7797	0.4761	-0.2326	0.2322	0.1235	0.4672	4.704	-8.427	10.75	2.012	0.4883	0.9812	-0.3389	0.2517	0.4699	0.6539	0.06155	0.2357	0.7241	0.6237	-0.2244	0.3986	0.2531	0.3384	-0.735	0.3686	0.1694	0.06399	-0.8775	0.1379	0.3482
306	3	4	1	9.283	-1.964	0.6076	-0.1916	0.1746	0.2118	1.238	3.711	-5.097	5.06	2.387	-0.1081	1.041	-0.4289	0.2889	0.4864	0.7254	-0.00704	0.2764	0.7389	0.6645	-0.2131	0.4322	0.2641	0.4243	-0.7176	0.4438	0.1607	0.1132	-0.8593	0.229	0.3378
306	3	4	1	10.24	-5.113	0.7335	-0.157	0.1394	0.2712	2.072	2.301	0.002863	-3.229	2.906	-0.804	1.112	-0.5279	0.3155	0.5069	0.7674	-0.04735	0.309	0.7529	0.6972	-0.2024	0.4557	0.2746	0.4927	-0.7086	0.5035	0.1517	0.1492	-0.8415	0.3003	0.3249
306	3	4	1	10.61	-8.225	0.848	-0.1319	0.1304	0.2939	2.782	0.6594	5.544	-12.26	3.52	-1.608	1.188	-0.6391	0.33	0.5302	0.7862	-0.06143	0.3303	0.7666	0.7171	-0.1912	0.4673	0.2847	0.5371	-0.7052	0.5424	0.145	0.1678	-0.8227	0.345	0.313
306	3	4	1	10.25	-10.92	0.9454	-0.1176	0.1477	0.2781	3.212	-0.9662	10.62	-20.75	4.133	-2.482	1.255	-0.7594	0.3321	0.5547	0.7891	-0.05802	0.338	0.7809	0.7205	-0.1788	0.4658	0.2948	0.5533	-0.7044	0.5569	0.1428	0.1663	-0.802	0.3592	0.3054
306	3	4	1	9.253	-12.97	1.02	-0.1138	0.1876	0.228	3.291	-2.347	14.85	-28.07	4.616	-3.338	1.296	-0.8777	0.3227	0.5789	0.7824	-0.05012	0.3315	0.7959	0.7058	-0.1647	0.4513	0.3049	0.5397	-0.703	0.5459	0.1471	0.1438	-0.7787	0.3414	0.3049
306	3	4	1	7.855	-14.29	1.068	-0.118	0.2432	0.153	3.047	-3.323	18.13	-33.98	4.844	-4.056	1.294	-0.9762	0.3036	0.6015	0.7694	-0.0514	0.3117	0.8116	0.6738	-0.1495	0.4254	0.3149	0.4982	-0.6983	0.5105	0.1588	0.102	-0.7528	0.2938	0.3131
306	3	4	1	6.312	-14.86	1.086	-0.1263	0.3058	0.06561	2.581	-3.815	20.55	-38.46	4.731	-4.514	1.233	-1.033	0.2769	0.6216	0.7491	-0.07221	0.2812	0.8274	0.6277	-0.1339	0.3906	0.3244	0.4332	-0.6883	0.4546	0.1781	0.04429	-0.7252	0.2212	0.3301
306	3	4	1	4.855	-14.74	1.075	-0.1344	0.3667	-0.02161	2.025	-3.82	22.22	-41.56	4.251	-4.607	1.107	-1.03	0.245	0.6391	0.716	-0.1158	0.2435	0.8422	0.5724	-0.1194	0.3504	0.333	0.3523	-0.672	0.3838	0.204	-0.02405	-0.6971	0.131	0.3547
306	3	4	1	3.662	-14.02	1.039	-0.1386	0.4191	-0.09817	1.508	-3.392	23.26	-43.35	3.448	-4.277	0.9209	-0.9509	0.2101	0.6549	0.6615	-0.1766	0.2028	0.8551	0.5141	-0.1072	0.3084	0.3402	0.2645	-0.6495	0.3052	0.2345	-0.09685	-0.67	0.03179	0.3846
306	3	4	1	2.858	-12.81	0.9823	-0.1365	0.4587	-0.1574	1.137	-2.631	23.78	-43.91	2.414	-3.51	0.6904	-0.7948	0.1744	0.6698	0.5767	-0.2406	0.1629	0.8652	0.4588	-0.098	0.2681	0.3457	0.1792	-0.6217	0.226	0.2672	-0.1678	-0.6456	-0.0675	0.4165
306	3	4	1	2.528	-11.24	0.9139	-0.1271	0.4844	-0.1969	0.9888	-1.679	23.81	-43.3	1.272	-2.345	0.4408	-0.5714	0.1398	0.6851	0.4562	-0.2887	0.1268	0.8724	0.412	-0.09172	0.2322	0.3498	0.1054	-0.5902	0.153	0.2992	-0.2314	-0.6252	-0.159	0.4472
306	3	4	1	2.722	-9.51	0.8414	-0.1113	0.4976	-0.2182	1.105	-0.7017	23.37	-41.59	0.1536	-0.87	0.2019	-0.3024	0.1083	0.7018	0.302	-0.3026	0.09688	0.8773	0.3776	-0.08757	0.2029	0.3531	0.04995	-0.5569	0.09163	0.328	-0.2836	-0.6094	-0.2366	0.4739
306	3	4	1	3.464	-7.843	0.7723	-0.09083	0.5019	-0.2261	1.492	0.1231	22.43	-38.84	-0.8164	0.7839	0.002438	-0.01773	0.08155	0.72	0.1248	-0.2694	0.07404	0.881	0.3578	-0.08419	0.1811	0.3565	0.01719	-0.5238	0.04516	0.3516	-0.3225	-0.5981	-0.297	0.4948
306	3	4	1	4.733	-6.498	0.712	-0.06839	0.5019	-0.2266	2.112	0.642	20.96	-35.12	-1.529	2.447	-0.1349	0.2496	0.06114	0.7394	-0.05668	-0.1858	0.05851	0.8847	0.3532	-0.08012	0.1669	0.3607	0.00804	-0.4925	0.01468	0.3691	-0.3487	-0.5901	-0.3397	0.5097
306	3	4	1	6.429	-5.702	0.664	-0.0468	0.5018	-0.2257	2.876	0.7682	18.98	-30.57	-1.9	3.925	-0.1974	0.4695	0.04787	0.7595	-0.2193	-0.05938	0.04986	0.8897	0.3629	-0.07426	0.1597	0.3667	0.02027	-0.464	-0.0009783	0.3807	-0.3645	-0.5832	-0.3668	0.5198
306	3	4	1	8.333	-5.558	0.6291	-0.02877	0.5049	-0.2281	3.649	0.5158	16.55	-25.43	-1.883	5.031	-0.184	0.6199	0.04185	0.7792	-0.3407	0.0939	0.04729	0.8968	0.3848	-0.06619	0.1586	0.3745	0.04904	-0.4385	-0.004719	0.3877	-0.3738	-0.5747	-0.382	0.5277
306	3	4	1	10.11	-5.97	0.6064	-0.01656	0.5124	-0.2357	4.268	0.00371	13.88	-20.07	-1.487	5.626	-0.1043	0.6894	0.04231	0.7977	-0.4043	0.253	0.04982	0.9061	0.4161	-0.05625	0.1621	0.384	0.08794	-0.4157	-0.0004302	0.392	-0.381	-0.562	-0.39	0.5364
306	3	4	1	11.37	-6.658	0.5931	-0.01165	0.5231	-0.2474	4.584	-0.5773	11.29	-15.03	-0.783	5.654	0.02429	0.6786	0.04777	0.8146	-0.4029	0.3965	0.05631	0.9172	0.4531	-0.04536	0.1688	0.3945	0.1304	-0.3951	0.007983	0.3957	-0.3897	-0.5434	-0.3943	0.5482
306	3	4	1	11.85	-7.254	0.5855	-0.01433	0.5334	-0.2586	4.49	-1.015	9.217	-10.92	0.09914	5.167	0.1798	0.5982	0.05636	0.8296	-0.3398	0.5069	0.06552	0.9295	0.492	-0.03472	0.177	0.405	0.1707	-0.3764	0.01746	0.4	-0.402	-0.5186	-0.3972	0.5642
306	3	4	1	11.42	-7.427	0.5795	-0.02343	0.538	-0.2624	3.944	-1.121	7.995	-8.23	1.002	4.302	0.3399	0.4666	0.06621	0.8429	-0.2272	0.5729	0.07622	0.9419	0.5289	-0.0255	0.1857	0.4148	0.2052	-0.3599	0.02633	0.4056	-0.418	-0.4893	-0.3987	0.5831
306	3	4	1	10.17	-6.935	0.5709	-0.03622	0.5305	-0.2508	2.958	-0.7493	7.718	-7.052	1.777	3.245	0.4844	0.3063	0.07589	0.8544	-0.08263	0.5902	0.08733	0.9538	0.5604	-0.01867	0.1937	0.4231	0.2324	-0.3464	0.03442	0.412	-0.4363	-0.4585	-0.397	0.6023
306	3	4	1	8.263	-5.639	0.5564	-0.04856	0.5049	-0.2158	1.593	0.1858	8.162	-7.069	2.311	2.184	0.5969	0.1416	0.08459	0.8645	0.07537	0.5606	0.09814	0.964	0.5843	-0.01488	0.2007	0.4292	0.2525	-0.3372	0.04279	0.4178	-0.4541	-0.4302	-0.3893	0.6179
306	3	4	1	5.939	-3.484	0.5339	-0.05544	0.457	-0.152	-0.05478	1.71	8.909	-7.709	2.54	1.282	0.6656	-0.00385	0.09221	0.8731	0.2305	0.4906	0.1084	0.972	0.5994	-0.01455	0.207	0.4328	0.2671	-0.3334	0.05312	0.422	-0.4686	-0.4081	-0.3732	0.6264
306	3	4	1	3.446	-0.5072	0.5026	-0.05179	0.3857	-0.0581	-1.847	3.77	9.508	-8.388	2.444	0.6655	0.6831	-0.1088	0.09923	0.8804	0.3711	0.39	0.1184	0.977	0.6061	-0.01789	0.213	0.434	0.278	-0.336	0.06712	0.4236	-0.4774	-0.3949	-0.3471	0.6254
306	3	4	1	1.101	3.099	0.4636	-0.03351	0.2943	0.06197	-3.587	6.202	9.584	-8.642	2.033	0.4255	0.6463	-0.1555	0.1063	0.8863	0.4897	0.2704	0.1286	0.9785	0.6058	-0.02491	0.2195	0.4329	0.2866	-0.3451	0.086	0.4229	-0.4797	-0.3916	-0.3111	0.6147
306	3	4	1	-0.6168	6.848	0.4196	0.001617	0.1906	0.1983	-4.988	8.683	8.873	-8.164	1.336	0.6222	0.5564	-0.131	0.114	0.8912	0.5826	0.1442	0.1396	0.9764	0.6005	-0.03534	0.2273	0.4299	0.2936	-0.3603	0.1101	0.4208	-0.4759	-0.3976	-0.2673	0.596
306	3	4	1	-0.9168	9.744	0.375	0.05317	0.08646	0.3358	-5.651	10.68	7.251	-6.794	0.3918	1.29	0.4184	-0.02875	0.1223	0.8954	0.6476	0.0247	0.1515	0.9707	0.5923	-0.04857	0.2366	0.4257	0.2983	-0.3805	0.1389	0.4195	-0.4679	-0.4105	-0.2193	0.5732
306	3	4	1	1.304	10.25	0.3353	0.1178	-0.003543	0.4563	-5.099	11.51	4.749	-4.517	-0.7503	2.438	0.2418	0.1509	0.1306	0.8997	0.683	-0.07535	0.1639	0.9624	0.5831	-0.06354	0.2472	0.4212	0.2992	-0.4042	0.1709	0.4215	-0.4586	-0.4268	-0.1714	0.5512
306	3	4	1	6.913	6.97	0.3068	0.1893	-0.06483	0.5417	-2.954	10.52	1.582	-1.49	-2.032	4.044	0.04017	0.3991	0.1375	0.9054	0.6863	-0.144	0.176	0.9525	0.5736	-0.07874	0.2581	0.4174	0.2942	-0.4298	0.204	0.4294	-0.4514	-0.4429	-0.1285	0.535
306	3	4	1	15.51	-0.05471	0.2957	0.2596	-0.08562	0.5777	0.7732	7.508	-1.818	1.906	-3.376	6.044	-0.1686	0.698	0.1411	0.9137	0.6547	-0.1711	0.1862	0.9428	0.5639	-0.09229	0.268	0.4157	0.2809	-0.4562	0.2359	0.4449	-0.4494	-0.4558	-0.09462	0.529
306	3	4	1	25.08	-9.085	0.3072	0.3195	-0.05966	0.5568	5.518	2.906	-4.764	4.985	-4.668	8.302	-0.3626	1.02	0.1393	0.9262	0.5858	-0.1491	0.1929	0.9351	0.5532	-0.102	0.2754	0.417	0.2578	-0.4829	0.2645	0.4686	-0.4548	-0.4634	-0.07234	0.5355
306	3	4	1	32.84	-17.84	0.3445	0.3603	0.01216	0.4801	10.31	-2.395	-6.326	6.742	-5.74	10.59	-0.5166	1.331	0.1301	0.9441	0.4785	-0.07375	0.1944	0.9314	0.5402	-0.1058	0.2789	0.4225	0.2246	-0.5098	0.2887	0.4997	-0.4685	-0.4656	-0.06238	0.5547
306	3	4	1	36.46	-24.6	0.4081	0.375	0.1215	0.357	14.13	-7.451	-5.513	6.089	-6.344	12.54	-0.6039	1.588	0.1124	0.9683	0.3344	0.05565	0.1894	0.9332	0.5234	-0.1017	0.2773	0.4327	0.1823	-0.5379	0.308	0.5357	-0.4895	-0.4639	-0.06314	0.5841
306	3	4	1	35.37	-28.74	0.4955	0.3596	0.2536	0.2036	16.23	-11.56	-1.691	2.416	-6.171	13.68	-0.5983	1.748	0.08591	0.9986	0.1587	0.2363	0.1774	0.9418	0.5017	-0.08856	0.2703	0.448	0.134	-0.5682	0.3235	0.5725	-0.5153	-0.4614	-0.07089	0.6188
306	3	4	1	30.74	-30.55	0.6009	0.3134	0.3893	0.03967	16.35	-14.36	5.106	-4.003	-4.919	13.53	-0.4784	1.771	0.05202	1.034	-0.03995	0.4622	0.1584	0.9572	0.4748	-0.06603	0.2581	0.4679	0.084	-0.602	0.3369	0.6056	-0.5418	-0.462	-0.0803	0.6525
306	3	4	1	24.23	-30.65	0.7166	0.2396	0.5078	-0.1143	14.67	-15.77	14.26	-12.22	-2.437	11.78	-0.231	1.627	0.01364	1.071	-0.2492	0.7243	0.1336	0.979	0.4432	-0.03472	0.2417	0.4913	0.03737	-0.6405	0.3508	0.6302	-0.5644	-0.4701	-0.08532	0.6779
306	3	4	1	17.12	-29.55	0.8331	0.1443	0.589	-0.2397	11.63	-15.92	24.73	-21.11	1.144	8.49	0.1438	1.303	-0.02486	1.106	-0.4541	1.011	0.1043	1.006	0.4083	0.003832	0.2227	0.5167	-0.001033	-0.6841	0.3677	0.6423	-0.5789	-0.4891	-0.08035	0.6889
306	3	4	1	10.08	-27.54	0.9412	0.03603	0.6158	-0.3212	7.721	-14.97	34.73	-29.45	5.412	4.089	0.6305	0.8065	-0.05818	1.135	-0.6383	1.31	0.07272	1.036	0.372	0.04744	0.203	0.5423	-0.02745	-0.7324	0.3896	0.6395	-0.5817	-0.521	-0.06138	0.6812
306	3	4	1	3.424	-24.77	1.032	-0.07542	0.5765	-0.348	3.369	-13.07	41.1	-35.69	9.813	-0.8271	1.198	0.1663	-0.08094	1.153	-0.7853	1.604	0.04095	1.066	0.3366	0.09361	0.1844	0.5664	-0.03995	-0.784	0.4172	0.6216	-0.5712	-0.5656	-0.027	0.6536
306	3	4	1	-2.743	-21.33	1.101	-0.1802	0.4668	-0.3145	-1.14	-10.36	40.19	-38.23	13.8	-5.681	1.801	-0.5708	-0.08861	1.156	-0.8792	1.876	0.01095	1.097	0.3045	0.14	0.1686	0.5874	-0.03874	-0.8361	0.4496	0.5909	-0.5481	-0.6203	0.02109	0.6087
306	3	4	1	-8.412	-17.23	1.142	-0.2694	0.2907	-0.2206	-5.618	-6.925	31.53	-36.83	16.93	-10.03	2.387	-1.346	-0.07849	1.141	-0.9054	2.103	-0.01574	1.125	0.2775	0.1846	0.1568	0.6044	-0.02604	-0.8848	0.4841	0.5516	-0.5153	-0.6803	0.07816	0.5523
306	3	4	1	-13.61	-12.5	1.155	-0.3356	0.06083	-0.07192	-9.953	-2.83	18.36	-32.76	18.93	-13.58	2.9	-2.096	-0.05028	1.109	-0.851	2.259	-0.03803	1.15	0.2572	0.2261	0.1498	0.6172	-0.005417	-0.925	0.5168	0.5098	-0.4771	-0.739	0.1372	0.4932
306	3	4	1	-18.36	-7.155	1.142	-0.3736	-0.2017	0.1201	-14.07	1.846	3.982	-27.33	19.7	-16.19	3.291	-2.758	-0.006317	1.062	-0.7055	2.316	-0.05519	1.172	0.2445	0.2635	0.1478	0.626	0.01899	-0.9513	0.5431	0.4721	-0.4392	-0.7893	0.19	0.4412
306	3	4	1	-22.67	-1.274	1.106	-0.3809	-0.4702	0.3388	-17.88	6.981	-9.884	-21.26	19.29	-17.82	3.519	-3.28	0.04873	1.005	-0.4632	2.246	-0.06659	1.192	0.2405	0.2959	0.1512	0.6318	0.04334	-0.958	0.5586	0.4452	-0.407	-0.8242	0.2289	0.4061
306	3	4	1	-26.48	4.992	1.055	-0.357	-0.7152	0.5634	-21.26	12.36	-22.59	-14.88	17.87	-18.5	3.561	-3.619	0.1085	0.9442	-0.1254	2.026	-0.07136	1.208	0.2462	0.3224	0.1604	0.6352	0.06471	-0.9408	0.5606	0.4344	-0.3851	-0.8382	0.2476	0.3962
306	3	4	1	-29.59	11.33	0.9951	-0.3045	-0.9086	0.7709	-23.97	17.61	-33.92	-8.36	15.68	-18.31	3.41	-3.749	0.1661	0.8874	0.2951	1.647	-0.06825	1.222	0.2629	0.3415	0.1763	0.6368	0.08138	-0.8971	0.5478	0.4432	-0.3763	-0.8277	0.2427	0.417
306	3	4	1	-31.66	17.18	0.9361	-0.2278	-1.028	0.9384	-25.65	22.15	-43.78	-1.848	12.97	-17.32	3.077	-3.658	0.2148	0.8417	0.7713	1.119	-0.05567	1.231	0.2919	0.3511	0.1997	0.6368	0.09283	-0.8272	0.5219	0.473	-0.3812	-0.7919	0.2142	0.4705
306	3	4	1	-32.16	21.75	0.8863	-0.1335	-1.059	1.047	-25.84	25.26	-52.09	4.46	9.947	-15.63	2.593	-3.352	0.2492	0.8129	1.261	0.4746	-0.03209	1.235	0.3344	0.3491	0.2315	0.6348	0.0995	-0.7343	0.4866	0.5228	-0.3983	-0.7325	0.1652	0.5548
306	3	4	1	-30.55	24.21	0.8534	-0.0298	-1	1.083	-24.18	26.3	-58.71	10.3	6.807	-13.3	1.999	-2.854	0.2661	0.8047	1.712	-0.2318	0.003363	1.231	0.3906	0.3339	0.2719	0.6299	0.1025	-0.6249	0.4472	0.5891	-0.4239	-0.6543	0.102	0.6646
306	3	4	1	-26.6	24.12	0.8435	0.07466	-0.8597	1.043	-20.69	25.14	-63.46	15.36	3.698	-10.41	1.35	-2.202	0.2647	0.8181	2.068	-0.931	0.05018	1.219	0.459	0.305	0.3201	0.6214	0.1037	-0.5082	0.4104	0.6664	-0.4529	-0.5642	0.03286	0.791
306	3	4	1	-20.7	21.81	0.8599	0.1712	-0.6565	0.9333	-15.88	22.24	-66.14	19.26	0.7473	-7.067	0.7037	-1.45	0.2466	0.851	2.278	-1.55	0.106	1.199	0.5363	0.2638	0.3739	0.6088	0.105	-0.3952	0.3831	0.7474	-0.4791	-0.4711	-0.03238	0.9226
306	3	4	1	-13.68	18.19	0.9029	0.2525	-0.416	0.7682	-10.53	18.42	-66.58	21.7	-1.926	-3.386	0.1181	-0.6613	0.2159	0.8988	2.309	-2.022	0.1666	1.172	0.6171	0.214	0.4296	0.5924	0.109	-0.2977	0.3715	0.8233	-0.4961	-0.3847	-0.08359	1.046
306	3	4	1	-6.554	14.25	0.9695	0.3131	-0.1657	0.5688	-5.43	14.5	-64.7	22.52	-4.193	0.4396	-0.3549	0.09594	0.1778	0.9547	2.15	-2.298	0.2262	1.14	0.6947	0.1611	0.4825	0.5734	0.1186	-0.2264	0.3806	0.885	-0.4983	-0.315	-0.1114	1.148
306	3	4	1	-0.2478	10.8	1.054	0.3504	0.06894	0.3588	-1.209	11.04	-60.61	21.78	-5.897	4.133	-0.6763	0.756	0.1383	1.011	1.815	-2.35	0.2785	1.109	0.7618	0.1117	0.5276	0.5535	0.1361	-0.1899	0.4133	0.9238	-0.4812	-0.2702	-0.1083	1.216
306	3	4	1	4.533	8.331	1.149	0.3645	0.2684	0.1606	1.794	8.358	-54.55	19.71	-6.864	7.335	-0.8259	1.266	0.1032	1.061	1.34	-2.177	0.3177	1.081	0.8122	0.07256	0.5602	0.5351	0.1636	-0.193	0.47	0.933	-0.4426	-0.2565	-0.0702	1.24
306	3	4	1	7.441	7.042	1.245	0.3582	0.4208	-0.008246	3.519	6.541	-46.89	16.68	-6.937	9.663	-0.8059	1.595	0.07677	1.098	0.7788	-1.801	0.3396	1.061	0.8413	0.04914	0.5774	0.52	0.2011	-0.2359	0.548	0.9093	-0.3831	-0.2759	0.002766	1.216
306	3	4	1	8.571	6.819	1.334	0.336	0.5224	-0.1366	4.143	5.496	-38.11	13.07	-6.069	10.83	-0.6415	1.737	0.06129	1.119	0.193	-1.264	0.3425	1.051	0.8477	0.0447	0.5776	0.5096	0.2463	-0.3138	0.6414	0.8536	-0.3064	-0.326	0.1053	1.146
306	3	4	1	8.404	7.297	1.409	0.3035	0.5769	-0.221	3.987	5.025	-28.86	9.283	-4.405	10.78	-0.3764	1.712	0.05689	1.122	-0.3525	-0.6253	0.3276	1.052	0.8329	0.05959	0.5617	0.5039	0.2943	-0.4178	0.7411	0.7717	-0.2194	-0.4002	0.2271	1.039
306	3	4	1	7.627	7.95	1.467	0.2659	0.593	-0.2645	3.413	4.885	-19.98	5.752	-2.292	9.762	-0.06416	1.561	0.06148	1.108	-0.7987	0.04363	0.2981	1.062	0.8011	0.09123	0.5321	0.502	0.3377	-0.5355	0.8362	0.6735	-0.1315	-0.4881	0.354	0.9079
306	3	4	1	6.911	8.234	1.503	0.2276	0.5822	-0.2751	2.744	4.837	-12.49	2.922	-0.1722	8.182	0.2418	1.332	0.0713	1.079	-1.099	0.6701	0.259	1.078	0.7584	0.1346	0.4922	0.5015	0.3676	-0.6536	0.9147	0.5717	-0.05293	-0.577	0.4699	0.7698
306	3	4	1	6.741	7.722	1.519	0.1916	0.5564	-0.2641	2.222	4.687	-7.298	1.145	1.576	6.474	0.4977	1.075	0.08165	1.039	-1.225	1.188	0.2159	1.094	0.7115	0.1834	0.446	0.4996	0.375	-0.7589	0.9658	0.4796	0.006051	-0.6542	0.5594	0.6425
306	3	4	1	7.317	6.242	1.513	0.1594	0.5263	-0.2431	1.982	4.306	-4.696	0.5052	2.736	4.956	0.6752	0.8301	0.08779	0.993	-1.173	1.547	0.1736	1.107	0.6667	0.2307	0.3969	0.4931	0.3528	-0.8408	0.9814	0.4089	0.03728	-0.7092	0.6101	0.5413
306	3	4	1	8.534	3.918	1.487	0.1312	0.4997	-0.2226	2.052	3.654	-4.175	0.7424	3.275	3.794	0.7635	0.6227	0.08576	0.9434	-0.9639	1.723	0.1359	1.112	0.6287	0.271	0.3479	0.4796	0.2968	-0.8924	0.9574	0.3678	0.03583	-0.7349	0.6151	0.4769
306	3	4	1	10.07	1.098	1.444	0.1065	0.4813	-0.2102	2.368	2.778	-4.75	1.394	3.29	3.029	0.7675	0.4653	0.07296	0.8935	-0.6409	1.721	0.1049	1.106	0.6003	0.3003	0.3007	0.4577	0.2075	-0.9112	0.8947	0.3594	0.000861	-0.7289	0.5737	0.4539
306	3	4	1	11.52	-1.783	1.383	0.08437	0.472	-0.2093	2.798	1.793	-5.455	1.997	2.944	2.611	0.7036	0.3576	0.0485	0.8457	-0.2628	1.57	0.08061	1.088	0.5821	0.3174	0.256	0.4276	0.08987	-0.8989	0.7987	0.3821	-0.06427	-0.694	0.4914	0.4703
306	3	4	1	12.53	-4.323	1.309	0.06432	0.4703	-0.2191	3.18	0.8586	-5.612	2.207	2.413	2.447	0.5947	0.2906	0.0133	0.8015	0.1086	1.32	0.06209	1.06	0.5728	0.3234	0.2142	0.3912	-0.04701	-0.861	0.6789	0.4295	-0.1525	-0.6371	0.3793	0.5184
306	3	4	1	12.85	-6.216	1.222	0.04606	0.4723	-0.2347	3.356	0.1416	-4.865	1.83	1.847	2.43	0.4649	0.2505	-0.03025	0.7621	0.4205	1.026	0.04742	1.025	0.57	0.3212	0.175	0.3517	-0.1913	-0.8053	0.5472	0.4924	-0.2543	-0.5679	0.2516	0.5865
306	3	4	1	12.38	-7.261	1.128	0.02974	0.4734	-0.2481	3.203	-0.2035	-3.147	0.8244	1.359	2.459	0.3359	0.223	-0.0786	0.7284	0.6386	0.7398	0.03455	0.9876	0.5708	0.3149	0.1385	0.3131	-0.3299	-0.7405	0.4162	0.5603	-0.359	-0.4974	0.1237	0.6613
306	3	4	1	11.13	-7.342	1.028	0.01585	0.4691	-0.2498	2.643	-0.05187	-0.6476	-0.7025	1.011	2.454	0.2239	0.196	-0.1276	0.7012	0.7504	0.4987	0.02189	0.9527	0.5727	0.3089	0.1049	0.2795	-0.4507	-0.6746	0.2974	0.6234	-0.4566	-0.4354	0.009246	0.73
306	3	4	1	9.175	-6.383	0.9288	0.005181	0.4562	-0.2305	1.649	0.6885	2.206	-2.499	0.8207	2.368	0.138	0.1624	-0.1731	0.6808	0.7643	0.3237	0.008612	0.9246	0.5742	0.3066	0.07508	0.2544	-0.5443	-0.6143	0.1995	0.6742	-0.5391	-0.3898	-0.08127	0.7826
306	3	4	1	6.599	-4.323	0.8337	-0.001252	0.4332	-0.1833	0.2322	2.076	4.783	-4.195	0.7626	2.191	0.08039	0.1198	-0.2113	0.6674	0.7037	0.2193	-0.005273	0.9064	0.5747	0.3102	0.04999	0.2401	-0.6046	-0.5634	0.1276	0.7085	-0.6014	-0.3645	-0.1423	0.8134
306	3	4	1	3.475	-1.085	0.7464	-0.002229	0.401	-0.1054	-1.561	4.135	6.355	-5.354	0.7789	1.946	0.04692	0.07099	-0.2397	0.6608	0.5999	0.1758	-0.01904	0.8992	0.575	0.3206	0.0307	0.2376	-0.6305	-0.5236	0.08303	0.7259	-0.6416	-0.3601	-0.1731	0.821
306	3	4	1	-0.1608	3.428	0.6685	0.003582	0.362	0.0006762	-3.653	6.841	6.306	-5.578	0.7945	1.684	0.02898	0.02238	-0.2567	0.6599	0.4851	0.1743	-0.03161	0.9025	0.5764	0.3368	0.01792	0.2459	-0.6247	-0.4944	0.06313	0.7291	-0.6611	-0.3734	-0.1777	0.8083
306	3	4	1	-4.29	9.301	0.6001	0.0174	0.3203	0.126	-5.921	10.09	4.366	-4.606	0.7335	1.472	0.01553	-0.01729	-0.2627	0.6633	0.3865	0.1921	-0.04192	0.9137	0.5803	0.3571	0.01168	0.2627	-0.594	-0.474	0.06272	0.7228	-0.6633	-0.3991	-0.1629	0.7806
306	3	4	1	-8.818	16.48	0.5395	0.04004	0.2795	0.256	-8.155	13.64	0.7028	-2.363	0.5349	1.38	-0.00473	-0.03863	-0.2593	0.6691	0.3227	0.2072	-0.04927	0.9289	0.5883	0.3788	0.01117	0.2845	-0.5471	-0.4597	0.07496	0.7129	-0.6533	-0.4304	-0.137	0.745
306	3	4	1	-13.3	24.4	0.484	0.0715	0.2419	0.3724	-10.01	17.03	-4.194	1.071	0.1641	1.469	-0.04121	-0.03313	-0.2496	0.6752	0.3017	0.203	-0.05357	0.9436	0.6012	0.3993	0.01476	0.3071	-0.4942	-0.4488	0.09268	0.7047	-0.6364	-0.4609	-0.1081	0.7078
306	3	4	1	-16.31	31.05	0.4306	0.1107	0.2057	0.4565	-10.96	19.48	-9.706	5.504	-0.3815	1.783	-0.09955	0.005382	-0.2377	0.6794	0.3207	0.1713	-0.05536	0.9529	0.6192	0.4162	0.02023	0.3263	-0.4443	-0.4391	0.1095	0.7023	-0.6175	-0.4849	-0.08288	0.6745
306	3	4	1	-15.03	32.39	0.3775	0.1551	0.1646	0.4936	-10.39	20.08	-15.16	10.58	-1.071	2.342	-0.1801	0.07926	-0.2278	0.6804	0.3681	0.1135	-0.05564	0.9531	0.6415	0.4279	0.02521	0.3385	-0.4048	-0.4287	0.1206	0.708	-0.6004	-0.4985	-0.06531	0.6485
306	3	4	1	-7.545	25.55	0.3246	0.2009	0.1063	0.477	-7.928	18.17	-19.7	15.56	-1.839	3.129	-0.2765	0.1856	-0.2238	0.6775	0.4262	0.04013	-0.05561	0.9414	0.6672	0.4334	0.02764	0.3414	-0.3797	-0.4164	0.1235	0.722	-0.5872	-0.4997	-0.05671	0.6311
306	3	4	1	3.95	13.15	0.2747	0.2431	0.01478	0.4113	-3.825	13.88	-22.08	18.98	-2.586	4.087	-0.3755	0.3148	-0.2283	0.6713	0.4746	-0.0313	-0.05635	0.9173	0.6948	0.4329	0.02628	0.3342	-0.3694	-0.4016	0.1181	0.7429	-0.5783	-0.4887	-0.05567	0.6222
306	3	4	1	15.67	-0.2484	0.2329	0.276	-0.1268	0.3118	1.088	8.095	-20.62	18.67	-3.181	5.099	-0.4573	0.4503	-0.2422	0.6631	0.4944	-0.07979	-0.0585	0.8821	0.7228	0.427	0.02091	0.3177	-0.371	-0.384	0.1065	0.768	-0.5726	-0.4672	-0.05863	0.6202
306	3	4	1	24.96	-11.94	0.2061	0.2939	-0.3313	0.2022	5.782	1.956	-14.3	13.09	-3.459	5.988	-0.4978	0.569	-0.2645	0.6552	0.4708	-0.08443	-0.06214	0.8389	0.7498	0.4172	0.01238	0.2946	-0.3786	-0.364	0.09254	0.7938	-0.5675	-0.4383	-0.06068	0.6228
306	3	4	1	30.44	-20.84	0.2017	0.2921	-0.6031	0.1089	9.42	-3.626	-4.222	3.15	-3.24	6.522	-0.4717	0.6435	-0.2922	0.65	0.3958	-0.02792	-0.06678	0.7926	0.7746	0.4055	0.002386	0.2686	-0.3848	-0.3422	0.0811	0.8169	-0.5597	-0.4057	-0.05654	0.6276
306	3	4	1	31.81	-26.79	0.2251	0.2681	-0.9353	0.05581	11.53	-8.093	6.531	-8.341	-2.361	6.452	-0.3582	0.6463	-0.3204	0.6493	0.2697	0.1003	-0.07155	0.7487	0.7964	0.3942	-0.006944	0.2442	-0.3821	-0.3195	0.07694	0.8342	-0.5457	-0.3734	-0.04152	0.6323
306	3	4	1	29.83	-30.13	0.2788	0.2223	-1.31	0.05897	12	-11.21	14.02	-18.5	-0.7375	5.584	-0.1458	0.555	-0.3438	0.6543	0.1013	0.3014	-0.07543	0.713	0.8146	0.3862	-0.0135	0.2258	-0.3642	-0.2967	0.08381	0.8436	-0.5225	-0.3446	-0.01239	0.6351
306	3	4	1	25.66	-31.4	0.361	0.1585	-1.7	0.1243	11.01	-12.94	15.33	-25.46	1.567	3.861	0.1622	0.3579	-0.3568	0.6645	-0.09127	0.5651	-0.0774	0.6906	0.8286	0.384	-0.01556	0.2173	-0.3269	-0.2746	0.1037	0.8442	-0.4886	-0.3221	0.03208	0.6351
306	3	4	1	20.4	-31.11	0.4655	0.0836	-2.073	0.2466	8.923	-13.4	10.68	-29.02	4.305	1.424	0.5451	0.05928	-0.3545	0.6784	-0.2819	0.8688	-0.0766	0.6853	0.8386	0.3898	-0.01197	0.2212	-0.2692	-0.2534	0.1364	0.8365	-0.4436	-0.3071	0.09081	0.6319
306	3	4	1	14.8	-29.62	0.5825	0.006725	-2.395	0.4111	6.106	-12.72	2.633	-30.12	7.067	-1.41	0.9651	-0.3184	-0.334	0.6933	-0.438	1.177	-0.07225	0.6986	0.8453	0.4048	-0.002167	0.2385	-0.193	-0.2331	0.1794	0.8222	-0.3892	-0.2998	0.1606	0.6258
306	3	4	1	9.313	-27.16	0.7004	-0.06227	-2.635	0.5959	2.91	-11.06	-6.444	-29.68	9.387	-4.238	1.371	-0.736	-0.2941	0.7064	-0.5236	1.446	-0.0635	0.7301	0.8501	0.4286	0.01401	0.2684	-0.1028	-0.213	0.2285	0.8041	-0.3283	-0.2991	0.2363	0.6182
306	3	4	1	4.205	-23.9	0.8084	-0.1144	-2.766	0.7755	-0.3785	-8.58	-15.27	-28.23	10.87	-6.677	1.709	-1.143	-0.2364	0.7148	-0.5053	1.626	-0.04941	0.7767	0.8551	0.4597	0.03653	0.3083	-0.005005	-0.1916	0.2782	0.7855	-0.2651	-0.3028	0.3122	0.6106
306	3	4	1	-0.3632	-19.96	0.8978	-0.1432	-2.772	0.925	-3.526	-5.439	-23.29	-26.03	11.28	-8.446	1.927	-1.485	-0.1649	0.7173	-0.3588	1.672	-0.02881	0.8336	0.8634	0.4947	0.06538	0.3542	0.09364	-0.1674	0.3232	0.77	-0.2039	-0.3083	0.3821	0.6052
306	3	4	1	-4.268	-15.49	0.9644	-0.1457	-2.647	1.023	-6.329	-1.835	-30.35	-23.21	10.63	-9.401	1.994	-1.715	-0.08537	0.7142	-0.07705	1.554	-0.000451	0.8947	0.8781	0.5293	0.1007	0.4016	0.1871	-0.1383	0.3591	0.7605	-0.1489	-0.3129	0.4412	0.6045
306	3	4	1	-7.376	-10.68	1.009	-0.1231	-2.399	1.057	-8.58	1.965	-36.37	-19.84	9.077	-9.515	1.898	-1.798	-0.004615	0.7077	0.3235	1.267	0.03683	0.9535	0.9024	0.5589	0.1428	0.4458	0.2714	-0.1027	0.3833	0.7595	-0.1032	-0.3138	0.4863	0.6104
306	3	4	1	-9.502	-5.85	1.037	-0.08014	-2.048	1.022	-10.05	5.599	-41.37	-15.98	6.902	-8.845	1.654	-1.72	0.07057	0.7018	0.801	0.8335	0.08375	1.004	0.9384	0.5788	0.1919	0.4829	0.3451	-0.05948	0.3962	0.7681	-0.06773	-0.3092	0.5171	0.6244
306	3	4	1	-10.39	-1.43	1.056	-0.02443	-1.623	0.9211	-10.5	8.613	-45.33	-11.72	4.399	-7.496	1.3	-1.486	0.1347	0.701	1.292	0.3075	0.1401	1.043	0.9869	0.5857	0.248	0.5106	0.4097	-0.008464	0.4004	0.7862	-0.04187	-0.2981	0.5362	0.647
306	3	4	1	-9.752	2.012	1.077	0.03547	-1.162	0.7673	-9.716	10.54	-48.22	-7.174	1.84	-5.599	0.8902	-1.124	0.1845	0.71	1.72	-0.2368	0.2045	1.066	1.047	0.5781	0.3103	0.528	0.469	0.04915	0.4012	0.8123	-0.02286	-0.2806	0.5484	0.6778
306	3	4	1	-7.381	3.945	1.109	0.09145	-0.7043	0.5785	-7.691	11.09	-49.96	-2.523	-0.5343	-3.307	0.4868	-0.6757	0.2193	0.7319	2.012	-0.717	0.2741	1.076	1.114	0.5568	0.3771	0.5364	0.5284	0.1107	0.4051	0.8439	-0.006459	-0.2581	0.5604	0.7148
306	3	4	1	-3.397	4.146	1.158	0.1373	-0.2843	0.376	-4.699	10.3	-50.41	1.946	-2.517	-0.8056	0.1497	-0.1924	0.2411	0.7678	2.109	-1.057	0.3447	1.075	1.183	0.5251	0.4458	0.5385	0.5933	0.1719	0.4192	0.8773	0.01237	-0.2329	0.5794	0.7551
306	3	4	1	1.6	2.907	1.228	0.1694	0.07005	0.1806	-1.302	8.572	-49.33	5.824	-3.921	1.686	-0.07129	0.2703	0.254	0.8165	1.981	-1.198	0.4112	1.068	1.248	0.4881	0.513	0.5382	0.6684	0.2272	0.4499	0.908	0.03871	-0.2083	0.6121	0.7942
306	3	4	1	6.614	0.949	1.317	0.1871	0.3419	0.009665	1.841	6.475	-46.43	8.604	-4.583	3.914	-0.1439	0.6619	0.2631	0.8745	1.627	-1.108	0.4686	1.06	1.301	0.4523	0.5747	0.5396	0.7562	0.2704	0.502	0.9316	0.07678	-0.1885	0.6638	0.8268
306	3	4	1	10.61	-0.9012	1.421	0.192	0.5264	-0.1252	4.202	4.54	-41.5	9.804	-4.38	5.615	-0.05854	0.944	0.273	0.9364	1.081	-0.7869	0.5122	1.058	1.336	0.4243	0.6271	0.5462	0.8567	0.295	0.5774	0.9438	0.1292	-0.1776	0.7371	0.8473
306	3	4	1	12.9	-2.031	1.535	0.1875	0.6296	-0.219	5.535	3.102	-34.59	9.19	-3.275	6.571	0.1699	1.097	0.2876	0.9963	0.3972	-0.2605	0.539	1.065	1.35	0.4098	0.6673	0.5606	0.9669	0.2957	0.6755	0.9416	0.1964	-0.1797	0.8319	0.8507
306	3	4	1	13.38	-2.184	1.649	0.1775	0.6656	-0.2728	5.875	2.287	-26.2	6.962	-1.374	6.686	0.5041	1.12	0.3083	1.049	-0.3487	0.4184	0.5479	1.084	1.34	0.4127	0.6934	0.5839	1.081	0.2696	0.792	0.9239	0.2762	-0.1973	0.9445	0.8338
306	3	4	1	12.41	-1.414	1.756	0.1656	0.6529	-0.2924	5.437	2.069	-17.36	3.763	1.049	6.035	0.8913	1.033	0.3349	1.089	-1.077	1.179	0.5399	1.115	1.31	0.4342	0.7051	0.6152	1.191	0.2163	0.9202	0.8919	0.3639	-0.2315	1.068	0.796
306	3	4	1	10.56	0.05618	1.852	0.1545	0.6107	-0.2864	4.5	2.334	-9.424	0.4678	3.576	4.857	1.273	0.8699	0.3649	1.114	-1.708	1.938	0.5183	1.156	1.264	0.473	0.7039	0.6523	1.288	0.1392	1.051	0.8488	0.4527	-0.2813	1.194	0.7397
306	3	4	1	8.328	1.946	1.932	0.1458	0.5564	-0.2643	3.322	2.941	-3.616	-2.132	5.757	3.473	1.596	0.6681	0.3951	1.124	-2.176	2.616	0.4879	1.203	1.21	0.525	0.6928	0.6919	1.365	0.0446	1.176	0.8	0.5347	-0.3435	1.312	0.6706
306	3	4	2	-1.515	0.6343	-0.6777	-0.0567	0.08197	-0.03217	-13.37	3.546	-1.832	0.7208	1.209	-5.596	-0.2154	-0.00353	-0.5379	-0.2505	-0.1092	0.05097	-0.6134	-0.2072	0.09175	0.3453	-0.6923	-0.1908	-0.9516	0.1904	-0.8528	0.1073	-0.4253	0.09245	-0.5854	-0.09154
306	3	4	2	-0.838	0.3665	-0.6028	-0.03608	0.03963	-0.01552	-12.65	3.406	-1.61	0.6333	1.131	-5.207	-0.1783	0.005647	-0.5114	-0.2642	-0.1004	0.04305	-0.5718	-0.2055	0.1003	0.3157	-0.674	-0.1809	-0.7756	0.2221	-0.8241	0.0731	-0.3454	0.1486	-0.5413	-0.1008
306	3	4	2	-0.2948	0.1475	-0.5211	-0.01685	0.002757	-0.001025	-11.87	3.23	-1.357	0.5339	1.048	-4.792	-0.1452	0.01059	-0.4754	-0.2655	-0.09874	0.03029	-0.5194	-0.1943	0.1023	0.2783	-0.6361	-0.1629	-0.5999	0.2431	-0.7695	0.043	-0.2704	0.1836	-0.4815	-0.104
306	3	4	2	0.1019	-0.01436	-0.4347	-0.0004976	-0.02388	0.009444	-11	3.013	-1.09	0.429	0.9612	-4.355	-0.1159	0.01084	-0.4319	-0.2557	-0.1003	0.01454	-0.4601	-0.1759	0.1005	0.2359	-0.5825	-0.1392	-0.4325	0.2526	-0.6953	0.01795	-0.2018	0.1987	-0.4118	-0.1019
306	3	4	2	0.3586	-0.1188	-0.3453	0.01219	-0.03868	0.01526	-10.01	2.755	-0.8261	0.325	0.8681	-3.896	-0.08934	0.006959	-0.3832	-0.2365	-0.1007	-0.001759	-0.3974	-0.1526	0.09751	0.1914	-0.5173	-0.1123	-0.2795	0.251	-0.6084	-0.001671	-0.1408	0.1969	-0.3382	-0.0954
306	3	4	2	0.4974	-0.1726	-0.2545	0.02108	-0.04252	0.01676	-8.903	2.453	-0.5798	0.2281	0.7674	-3.411	-0.064	0.000311	-0.3313	-0.2098	-0.09622	-0.01615	-0.334	-0.1264	0.09557	0.1475	-0.4447	-0.08459	-0.1442	0.2401	-0.515	-0.01597	-0.08753	0.1822	-0.2654	-0.08539
306	3	4	2	0.5509	-0.188	-0.1636	0.02663	-0.03781	0.0149	-7.643	2.106	-0.3636	0.143	0.6566	-2.894	-0.03848	-0.007332	-0.2777	-0.1777	-0.084	-0.02663	-0.272	-0.09918	0.0958	0.1063	-0.3681	-0.05772	-0.02808	0.222	-0.4199	-0.02542	-0.04196	0.159	-0.1969	-0.07259
306	3	4	2	0.5551	-0.1799	-0.07385	0.02973	-0.02771	0.01092	-6.219	1.711	-0.1847	0.07254	0.5329	-2.339	-0.01183	-0.01414	-0.2232	-0.1417	-0.06298	-0.03193	-0.2121	-0.07209	0.0982	0.06922	-0.29	-0.03281	0.06956	0.1993	-0.3263	-0.03078	-0.003728	0.1314	-0.1347	-0.05754
306	3	4	2	0.5429	-0.1634	0.01302	0.0315	-0.01537	0.006074	-4.623	1.266	-0.04417	0.01719	0.3937	-1.739	0.01617	-0.01853	-0.1682	-0.1035	-0.03377	-0.03171	-0.1542	-0.04578	0.1017	0.03682	-0.2118	-0.01033	0.1505	0.1742	-0.2359	-0.03298	0.02776	0.1027	-0.07913	-0.04061
306	3	4	2	0.5403	-0.1513	0.09498	0.03308	-0.003384	0.001376	-2.863	0.7721	0.06292	-0.02499	0.2373	-1.094	0.0449	-0.01938	-0.1125	-0.06413	0.001451	-0.02647	-0.09729	-0.02043	0.1044	0.009003	-0.1341	0.009712	0.2172	0.1486	-0.1488	-0.03306	0.05329	0.07566	-0.02963	-0.02208
306	3	4	2	0.5633	-0.1522	0.1697	0.03543	0.006413	-0.002453	-0.9599	0.2348	0.1461	-0.05772	0.06314	-0.4063	0.07311	-0.01614	-0.05596	-0.02437	0.03937	-0.01738	-0.04042	0.004112	0.1043	-0.01482	-0.0566	0.02765	0.2719	0.1234	-0.06439	-0.03203	0.07384	0.05171	0.01515	-0.002269
306	3	4	2	0.6177	-0.1699	0.2346	0.03914	0.01306	-0.005036	1.051	-0.3368	0.2169	-0.08553	-0.128	0.3177	0.09912	-0.00888	0.001676	0.01516	0.07615	-0.005991	0.0174	0.02814	0.09943	-0.0355	0.02084	0.04393	0.3166	0.09885	0.01815	-0.03082	0.0906	0.03148	0.0567	0.01835
306	3	4	2	0.6996	-0.2033	0.2873	0.04428	0.01637	-0.0063	3.118	-0.9293	0.2862	-0.1127	-0.3338	1.066	0.1211	0.001809	0.0603	0.05396	0.108	0.005999	0.07662	0.05188	0.08847	-0.05393	0.09836	0.05889	0.3522	0.07413	0.09966	-0.0301	0.1048	0.01463	0.09628	0.03905
306	3	4	2	0.7958	-0.2472	0.3258	0.05027	0.01669	-0.006396	5.18	-1.526	0.3618	-0.1422	-0.55	1.822	0.1375	0.01483	0.1193	0.09146	0.1318	0.01701	0.1369	0.07526	0.07088	-0.07093	0.1755	0.07265	0.3783	0.0477	0.1804	-0.03024	0.1175	0.0001035	0.1347	0.05878
306	3	4	2	0.8852	-0.2928	0.3488	0.05586	0.01474	-0.005609	7.17	-2.108	0.447	-0.1754	-0.7701	2.564	0.1468	0.02866	0.1776	0.1269	0.1454	0.02571	0.1971	0.0978	0.04689	-0.08715	0.2511	0.08498	0.3933	0.01747	0.2601	-0.03112	0.1293	-0.01377	0.172	0.07625
306	3	4	2	0.9395	-0.3284	0.3554	0.05919	0.01133	-0.004271	9.015	-2.655	0.5407	-0.212	-0.9838	3.263	0.1479	0.04143	0.2335	0.1591	0.1476	0.03109	0.2551	0.1185	0.01724	-0.103	0.323	0.09524	0.3945	-0.0189	0.3375	-0.03217	0.1402	-0.02907	0.2078	0.09003
306	3	4	2	0.9248	-0.3409	0.3454	0.05795	0.007247	-0.0027	10.64	-3.147	0.6374	-0.2498	-1.176	3.882	0.1399	0.05101	0.2849	0.1868	0.1385	0.03248	0.3083	0.1358	-0.01713	-0.1187	0.3886	0.1025	0.3783	-0.06356	0.4109	-0.03236	0.149	-0.04802	0.2409	0.09868
306	3	4	2	0.8041	-0.3162	0.3191	0.04966	0.003142	-0.001153	11.99	-3.566	0.7284	-0.2855	-1.329	4.38	0.1223	0.05503	0.3296	0.2082	0.1188	0.02952	0.3537	0.1478	-0.05542	-0.1343	0.4446	0.1056	0.3412	-0.118	0.4785	-0.03036	0.1538	-0.07278	0.2702	0.101
306	3	4	2	0.5424	-0.2414	0.2774	0.03211	-0.0005063	0.0001838	12.99	-3.893	0.8029	-0.3148	-1.418	4.712	0.09448	0.05115	0.3656	0.2217	0.08969	0.02207	0.3885	0.1525	-0.09715	-0.1496	0.4879	0.1033	0.2804	-0.1828	0.5385	-0.02476	0.1518	-0.1051	0.2943	0.09636
306	3	4	2	0.1135	-0.1065	0.2218	0.003704	-0.00337	0.00119	13.62	-4.118	0.8496	-0.3335	-1.421	4.839	0.05649	0.0372	0.3916	0.2255	0.05281	0.01022	0.4107	0.148	-0.1422	-0.1645	0.516	0.09468	0.1948	-0.2569	0.5895	-0.01438	0.14	-0.146	0.3124	0.08449
306	3	4	2	-0.492	0.09238	0.1542	-0.03612	-0.005228	0.001798	13.86	-4.238	0.8583	-0.3374	-1.322	4.736	0.00865	0.0116	0.407	0.2187	0.00979	-0.005783	0.4194	0.1333	-0.1907	-0.1785	0.5274	0.07926	0.08602	-0.3381	0.6311	0.001477	0.1159	-0.1957	0.3244	0.06597
306	3	4	2	-1.259	0.351	0.07752	-0.08671	-0.005922	0.001972	13.76	-4.258	0.8217	-0.3238	-1.113	4.4	-0.04806	-0.02637	0.4122	0.2006	-0.03774	-0.0256	0.4151	0.1079	-0.2428	-0.1912	0.5222	0.05713	-0.04196	-0.4225	0.664	0.02275	0.07833	-0.253	0.331	0.04198
306	3	4	2	-2.146	0.6559	-0.004606	-0.1461	-0.005336	0.0017	13.38	-4.198	0.7365	-0.2913	-0.7996	3.855	-0.1121	-0.07631	0.4088	0.1719	-0.08843	-0.04882	0.4001	0.07251	-0.2986	-0.2024	0.5021	0.02907	-0.1829	-0.5057	0.6896	0.04858	0.02756	-0.3156	0.3331	0.01424
306	3	4	2	-3.085	0.9849	-0.08827	-0.2115	-0.003398	0.0009828	12.83	-4.084	0.6044	-0.2403	-0.4017	3.15	-0.1815	-0.1366	0.3987	0.1339	-0.1414	-0.07509	0.3774	0.02893	-0.3579	-0.2118	0.4698	-0.003537	-0.3299	-0.5828	0.7099	0.07745	-0.03416	-0.3803	0.3323	-0.0152
306	3	4	2	-3.992	1.31	-0.1698	-0.2793	-0.0001248	-0.0001472	12.22	-3.949	0.4305	-0.1726	0.05319	2.346	-0.2544	-0.2046	0.3845	0.08868	-0.1964	-0.1041	0.3509	-0.02035	-0.4208	-0.2193	0.4289	-0.03895	-0.4764	-0.65	0.7268	0.1074	-0.1032	-0.4427	0.3293	-0.04426
306	3	4	2	-4.778	1.6	-0.2463	-0.346	0.004309	-0.001615	11.7	-3.825	0.2224	-0.09109	0.533	1.512	-0.3294	-0.277	0.3684	0.03869	-0.2542	-0.1359	0.3243	-0.07243	-0.4877	-0.2253	0.383	-0.07536	-0.6187	-0.7045	0.7414	0.1366	-0.1751	-0.4984	0.3239	-0.07106
306	3	4	2	-5.361	1.825	-0.3169	-0.4083	0.009503	-0.003278	11.37	-3.744	-0.01208	0.001573	1.007	0.706	-0.4059	-0.3503	0.352	-0.01369	-0.3164	-0.1706	0.3005	-0.1245	-0.5592	-0.2303	0.3347	-0.1112	-0.7556	-0.7456	0.7535	0.1634	-0.2458	-0.543	0.3144	-0.09417
306	3	4	2	-5.683	1.963	-0.3828	-0.4639	0.01477	-0.004915	11.3	-3.729	-0.2667	0.103	1.447	-0.0261	-0.4843	-0.4214	0.336	-0.0665	-0.3849	-0.2084	0.2809	-0.1744	-0.6364	-0.2349	0.2859	-0.1455	-0.8894	-0.7739	0.7608	0.1868	-0.3121	-0.5728	0.2975	-0.1128
306	3	4	2	-5.716	2	-0.4472	-0.5112	0.01916	-0.006224	11.53	-3.797	-0.5373	0.2117	1.833	-0.658	-0.5656	-0.4879	0.3202	-0.1184	-0.4616	-0.2497	0.2654	-0.2207	-0.7205	-0.2399	0.2368	-0.1776	-1.024	-0.7914	0.7592	0.2064	-0.3725	-0.5852	0.2685	-0.1266
306	3	4	2	-5.476	1.935	-0.5156	-0.5494	0.02149	-0.006848	12.03	-3.953	-0.8218	0.3267	2.153	-1.183	-0.6513	-0.548	0.3035	-0.1686	-0.5477	-0.2943	0.2525	-0.2629	-0.8123	-0.2459	0.1868	-0.2078	-1.165	-0.8007	0.7429	0.2226	-0.4272	-0.5791	0.2224	-0.136
306	3	4	2	-5.019	1.784	-0.5941	-0.5781	0.02056	-0.006427	12.7	-4.187	-1.119	0.447	2.4	-1.609	-0.7422	-0.6008	0.2842	-0.2168	-0.6429	-0.3418	0.2396	-0.3013	-0.9117	-0.2531	0.1343	-0.2363	-1.316	-0.8037	0.7057	0.2355	-0.4776	-0.5548	0.1546	-0.1418
306	3	4	2	-4.45	1.58	-0.6887	-0.5972	0.01538	-0.004678	13.39	-4.464	-1.426	0.571	2.577	-1.959	-0.8383	-0.6455	0.261	-0.2628	-0.7447	-0.3907	0.224	-0.3366	-1.017	-0.261	0.07816	-0.2637	-1.475	-0.8014	0.6413	0.2457	-0.5259	-0.5139	0.06168	-0.1451
306	3	4	2	-3.902	1.368	-0.8038	-0.6061	0.005501	-0.001489	13.89	-4.73	-1.737	0.6958	2.689	-2.258	-0.9378	-0.6819	0.2328	-0.3061	-0.8488	-0.4392	0.2031	-0.3697	-1.124	-0.2687	0.0175	-0.2903	-1.639	-0.7932	0.5453	0.2532	-0.5742	-0.4591	-0.05716	-0.147
306	3	4	2	-3.525	1.206	-0.941	-0.6047	-0.008679	0.002978	13.95	-4.913	-2.045	0.817	2.746	-2.529	-1.037	-0.7094	0.1992	-0.3461	-0.9489	-0.4843	0.175	-0.4011	-1.229	-0.2747	-0.04732	-0.3159	-1.801	-0.7775	0.4158	0.2575	-0.624	-0.3942	-0.2002	-0.1488
306	3	4	2	-3.455	1.148	-1.099	-0.5923	-0.02564	0.00822	13.41	-4.941	-2.336	0.9291	2.758	-2.787	-1.132	-0.7274	0.1608	-0.3817	-1.038	-0.5232	0.1395	-0.431	-1.325	-0.2775	-0.1147	-0.3401	-1.95	-0.7516	0.2547	0.2579	-0.6757	-0.3237	-0.3632	-0.1513
306	3	4	2	-3.785	1.237	-1.272	-0.5688	-0.04264	0.01336	12.16	-4.756	-2.597	1.026	2.733	-3.034	-1.215	-0.7354	0.119	-0.4117	-1.108	-0.553	0.09737	-0.4591	-1.405	-0.276	-0.1819	-0.362	-2.076	-0.7132	0.06693	0.2532	-0.7286	-0.2525	-0.5395	-0.1555
306	3	4	2	-4.54	1.497	-1.452	-0.5343	-0.05587	0.0172	10.25	-4.328	-2.814	1.102	2.674	-3.258	-1.283	-0.7331	0.07583	-0.4346	-1.153	-0.5715	0.0507	-0.4846	-1.465	-0.2698	-0.2456	-0.3806	-2.169	-0.6612	-0.1388	0.2427	-0.781	-0.1858	-0.721	-0.1616
306	3	4	2	-5.676	1.926	-1.631	-0.4899	-0.06087	0.01837	7.84	-3.652	-2.977	1.155	2.582	-3.432	-1.331	-0.7209	0.03345	-0.4496	-1.169	-0.5776	0.002305	-0.5064	-1.5	-0.2595	-0.3021	-0.3947	-2.223	-0.5966	-0.3517	0.2258	-0.8306	-0.1282	-0.8989	-0.1699
306	3	4	2	-7.09	2.503	-1.798	-0.4373	-0.05329	0.01557	5.125	-2.728	-3.08	1.183	2.452	-3.525	-1.355	-0.7001	-0.006085	-0.4561	-1.155	-0.5717	-0.04474	-0.5234	-1.511	-0.2468	-0.3485	-0.4035	-2.237	-0.5228	-0.5595	0.2029	-0.875	-0.08404	-1.065	-0.1802
306	3	4	2	-8.647	3.193	-1.945	-0.3793	-0.02993	0.007871	2.313	-1.56	-3.124	1.19	2.276	-3.5	-1.357	-0.673	-0.04117	-0.4545	-1.114	-0.556	-0.08749	-0.5348	-1.498	-0.2345	-0.3824	-0.4066	-2.213	-0.445	-0.7501	0.1752	-0.9115	-0.05593	-1.21	-0.192
306	3	4	2	-10.21	3.951	-2.064	-0.3191	0.01009	-0.004907	-0.4225	-0.1514	-3.118	1.182	2.047	-3.328	-1.338	-0.6424	-0.07083	-0.4459	-1.053	-0.5338	-0.1235	-0.5401	-1.468	-0.2255	-0.403	-0.4039	-2.158	-0.3703	-0.9128	0.1445	-0.9381	-0.04486	-1.33	-0.2046
306	3	4	2	-11.64	4.731	-2.151	-0.2604	0.06421	-0.02184	-2.942	1.477	-3.081	1.169	1.756	-2.989	-1.303	-0.6121	-0.09469	-0.432	-0.9802	-0.5098	-0.1511	-0.5394	-1.426	-0.2227	-0.4102	-0.3959	-2.083	-0.3055	-1.039	0.1132	-0.9531	-0.04986	-1.418	-0.217
306	3	4	2	-12.86	5.477	-2.203	-0.2065	0.1255	-0.04068	-5.127	3.261	-3.034	1.163	1.402	-2.481	-1.257	-0.5857	-0.1128	-0.415	-0.907	-0.4888	-0.169	-0.5329	-1.382	-0.2285	-0.4053	-0.3837	-1.999	-0.2569	-1.123	0.08371	-0.9558	-0.06819	-1.473	-0.2282
306	3	4	2	-13.79	6.124	-2.22	-0.1599	0.1826	-0.05774	-6.853	5.049	-3.001	1.175	0.991	-1.825	-1.207	-0.5663	-0.1256	-0.3972	-0.8436	-0.4753	-0.177	-0.5215	-1.343	-0.2437	-0.3898	-0.3685	-1.918	-0.228	-1.164	0.05824	-0.9462	-0.09582	-1.495	-0.2373
306	3	4	2	-14.4	6.597	-2.203	-0.1222	0.2201	-0.06819	-7.957	6.557	-3.005	1.211	0.5416	-1.07	-1.159	-0.5559	-0.1332	-0.3806	-0.7981	-0.4723	-0.1749	-0.5061	-1.315	-0.2679	-0.3652	-0.3515	-1.848	-0.2196	-1.161	0.03823	-0.925	-0.1281	-1.483	-0.2431
306	3	4	2	-14.71	6.811	-2.155	-0.09313	0.2205	-0.06655	-8.234	7.351	-3.058	1.274	0.09015	-0.2987	-1.116	-0.5555	-0.1354	-0.3667	-0.7751	-0.4814	-0.1629	-0.4878	-1.303	-0.2992	-0.3327	-0.3339	-1.794	-0.2292	-1.12	0.02427	-0.8936	-0.1606	-1.441	-0.2447
306	3	4	2	-14.77	6.687	-2.077	-0.07115	0.1674	-0.04771	-7.494	6.918	-3.162	1.358	-0.3098	0.3819	-1.082	-0.5642	-0.1316	-0.356	-0.7748	-0.502	-0.1412	-0.4675	-1.305	-0.3344	-0.2929	-0.3167	-1.755	-0.2513	-1.046	0.01584	-0.8533	-0.1897	-1.372	-0.2413
306	3	4	2	-14.68	6.175	-1.974	-0.05346	0.04884	-0.008013	-5.719	4.896	-3.306	1.448	-0.5923	0.8472	-1.054	-0.5797	-0.1208	-0.3484	-0.7922	-0.5316	-0.1101	-0.4461	-1.318	-0.3694	-0.2455	-0.3005	-1.725	-0.2782	-0.9462	0.01136	-0.8056	-0.2132	-1.279	-0.2321
306	3	4	2	-14.59	5.279	-1.846	-0.03659	-0.1385	0.05354	-3.218	1.336	-3.468	1.524	-0.6908	0.9805	-1.03	-0.5985	-0.1012	-0.3429	-0.8188	-0.5662	-0.07005	-0.4247	-1.334	-0.3998	-0.19	-0.2858	-1.694	-0.3017	-0.8303	0.008295	-0.7517	-0.2306	-1.166	-0.217
306	3	4	2	-14.64	4.071	-1.696	-0.0171	-0.3863	0.1345	-0.604	-3.241	-3.624	1.567	-0.5559	0.7015	-1.004	-0.6166	-0.07139	-0.3379	-0.8433	-0.601	-0.02152	-0.404	-1.344	-0.4214	-0.126	-0.2727	-1.649	-0.3137	-0.7068	0.003459	-0.6923	-0.2429	-1.037	-0.1959
306	3	4	2	-14.98	2.679	-1.528	0.007794	-0.6741	0.2288	1.477	-8.103	-3.759	1.562	-0.1719	-0.007111	-0.9698	-0.6295	-0.03011	-0.3318	-0.854	-0.6311	0.03451	-0.3851	-1.338	-0.431	-0.05327	-0.2616	-1.576	-0.3084	-0.5837	-0.006463	-0.6279	-0.2525	-0.8975	-0.1693
306	3	4	2	-15.65	1.256	-1.347	0.0395	-0.9706	0.3275	2.619	-12.61	-3.879	1.511	0.4373	-1.091	-0.9218	-0.6334	0.02309	-0.3231	-0.8407	-0.6527	0.09664	-0.3687	-1.308	-0.4271	0.02718	-0.2526	-1.466	-0.2827	-0.4677	-0.02431	-0.559	-0.2628	-0.7506	-0.1383
306	3	4	2	-16.66	-0.04952	-1.157	0.07769	-1.239	0.4208	2.743	-16.39	-4.024	1.435	1.213	-2.435	-0.8562	-0.6258	0.08745	-0.3107	-0.797	-0.6638	0.1631	-0.3558	-1.247	-0.41	0.1132	-0.246	-1.315	-0.2373	-0.3633	-0.05169	-0.4862	-0.2773	-0.6014	-0.1048
306	3	4	2	-17.92	-1.121	-0.9678	0.1201	-1.444	0.4997	2.002	-19.25	-4.277	1.386	2.08	-3.896	-0.7731	-0.6062	0.1607	-0.2946	-0.7225	-0.6647	0.2317	-0.3467	-1.157	-0.3826	0.2015	-0.2421	-1.126	-0.1778	-0.2719	-0.08829	-0.4111	-0.299	-0.4545	-0.07102
306	3	4	2	-19.34	-1.875	-0.7897	0.1627	-1.563	0.5594	0.6433	-21.17	-4.763	1.44	2.961	-5.328	-0.6774	-0.5764	0.239	-0.2754	-0.6236	-0.659	0.3006	-0.3416	-1.043	-0.3501	0.2876	-0.241	-0.9118	-0.1135	-0.1921	-0.1313	-0.3363	-0.3296	-0.3144	-0.04011
306	3	4	2	-20.82	-2.265	-0.6353	0.2	-1.589	0.6007	-1.099	-22.2	-5.632	1.69	3.791	-6.616	-0.5789	-0.5411	0.3169	-0.2548	-0.515	-0.6531	0.3682	-0.3397	-0.9168	-0.3199	0.367	-0.2424	-0.6979	-0.058	-0.1191	-0.175	-0.2659	-0.3697	-0.1853	-0.01536
306	3	4	2	-22.29	-2.275	-0.5186	0.2257	-1.545	0.6323	-3.038	-22.4	-7.026	2.231	4.524	-7.684	-0.4924	-0.5075	0.3878	-0.2352	-0.4185	-0.6558	0.4337	-0.3395	-0.7984	-0.3007	0.4352	-0.2454	-0.5186	-0.02705	-0.04535	-0.2115	-0.2054	-0.4182	-0.07086	-0.0001524
306	3	4	2	-23.69	-1.921	-0.4531	0.2337	-1.481	0.6696	-5.042	-21.88	-9.041	3.136	5.139	-8.504	-0.4356	-0.4849	0.4447	-0.2195	-0.3616	-0.6772	0.4971	-0.3383	-0.7105	-0.3012	0.4892	-0.2483	-0.4149	-0.03682	0.03818	-0.2305	-0.1616	-0.4722	0.02632	0.002531
306	3	4	2	-24.99	-1.25	-0.45	0.2186	-1.476	0.7338	-7.007	-20.78	-11.68	4.428	5.639	-9.097	-0.4269	-0.4827	0.4807	-0.2104	-0.3731	-0.7265	0.5594	-0.3326	-0.6774	-0.3286	0.5275	-0.2484	-0.4283	-0.1012	0.141	-0.2214	-0.1414	-0.5282	0.1047	-0.009359
306	3	4	2	-26.18	-0.3448	-0.5164	0.1775	-1.62	0.8463	-8.833	-19.32	-14.86	6.073	6.053	-9.527	-0.4818	-0.5092	0.4904	-0.2099	-0.4779	-0.81	0.6218	-0.3185	-0.7203	-0.3873	0.5507	-0.2426	-0.5921	-0.2292	0.2711	-0.1743	-0.1513	-0.582	0.1637	-0.03643
306	3	4	2	-27.23	0.6718	-0.6532	0.1101	-2.002	1.023	-10.4	-17.79	-18.36	7.959	6.429	-9.886	-0.6091	-0.5694	0.4704	-0.2192	-0.6905	-0.9294	0.6852	-0.2919	-0.8523	-0.4772	0.5615	-0.2275	-0.9223	-0.4224	0.4333	-0.08197	-0.196	-0.6297	0.2043	-0.07742
306	3	4	2	-28.15	1.646	-0.8543	0.01972	-2.678	1.266	-11.54	-16.58	-21.94	9.908	6.822	-10.28	-0.8084	-0.6631	0.4201	-0.2381	-1.01	-1.08	0.7495	-0.2498	-1.075	-0.5931	0.5638	-0.2003	-1.413	-0.6736	0.6276	0.05854	-0.2774	-0.6684	0.2279	-0.1289
306	3	4	2	-28.9	2.409	-1.107	-0.08658	-3.656	1.56	-12.11	-16.09	-25.28	11.67	7.279	-10.81	-1.068	-0.7846	0.3423	-0.2651	-1.419	-1.252	0.8133	-0.1909	-1.377	-0.7249	0.5622	-0.1594	-2.032	-0.9671	0.8475	0.2446	-0.394	-0.6967	0.2367	-0.1856
306	3	4	2	-29.46	2.814	-1.393	-0.1989	-4.883	1.872	-12.01	-16.59	-28.08	12.96	7.822	-11.52	-1.368	-0.9223	0.2425	-0.2977	-1.883	-1.429	0.8732	-0.1163	-1.734	-0.8584	0.5606	-0.105	-2.733	-1.28	1.08	0.4671	-0.5405	-0.7148	0.2329	-0.2403
306	3	4	2	-29.84	2.772	-1.691	-0.3055	-6.255	2.161	-11.3	-18.12	-30.08	13.5	8.436	-12.44	-1.678	-1.06	0.1285	-0.3324	-2.357	-1.59	0.9242	-0.03005	-2.114	-0.9771	0.562	-0.03951	-3.455	-1.583	1.308	0.7112	-0.7083	-0.7243	0.2188	-0.2851
306	3	4	2	-30.06	2.287	-1.978	-0.3945	-7.639	2.386	-10.2	-20.44	-31.14	13.07	9.069	-13.51	-1.968	-1.18	0.009421	-0.3656	-2.791	-1.715	0.9606	0.06165	-2.478	-1.064	0.5674	0.0324	-4.137	-1.849	1.509	0.957	-0.8858	-0.7279	0.1965	-0.3123
306	3	4	2	-30.16	1.45	-2.235	-0.455	-8.904	2.521	-8.958	-23.16	-31.27	11.66	9.645	-14.65	-2.207	-1.265	-0.1056	-0.3939	-3.14	-1.785	0.9771	0.1508	-2.792	-1.104	0.5762	0.1046	-4.728	-2.05	1.661	1.183	-1.06	-0.7285	0.168	-0.3151
306	3	4	2	-30.2	0.4117	-2.445	-0.4791	-9.942	2.562	-7.813	-25.87	-30.64	9.409	10.08	-15.76	-2.368	-1.3	-0.2081	-0.4143	-3.365	-1.784	0.9704	0.2292	-3.025	-1.084	0.5867	0.1703	-5.184	-2.163	1.748	1.367	-1.217	-0.7284	0.1353	-0.2889
306	3	4	2	-30.25	-0.6566	-2.597	-0.4622	-10.68	2.521	-6.919	-28.27	-29.56	6.637	10.32	-16.73	-2.432	-1.275	-0.2913	-0.4245	-3.439	-1.704	0.9402	0.2899	-3.152	-0.9998	0.5969	0.2235	-5.477	-2.174	1.76	1.495	-1.344	-0.7289	0.1011	-0.2317
306	3	4	2	-30.35	-1.589	-2.685	-0.4035	-11.09	2.428	-6.358	-30.12	-28.35	3.714	10.3	-17.48	-2.387	-1.187	-0.3504	-0.4228	-3.347	-1.544	0.8896	0.329	-3.161	-0.8495	0.6053	0.26	-5.593	-2.075	1.698	1.557	-1.431	-0.7298	0.06816	-0.1445
306	3	4	2	-30.55	-2.243	-2.708	-0.3061	-11.16	2.313	-6.173	-31.3	-27.31	0.9789	10.02	-17.96	-2.231	-1.04	-0.3829	-0.4084	-3.09	-1.31	0.8251	0.3456	-3.048	-0.6385	0.6118	0.278	-5.531	-1.87	1.574	1.553	-1.472	-0.7297	0.03995	-0.03112
306	3	4	2	-30.91	-2.503	-2.669	-0.176	-10.91	2.204	-6.392	-31.71	-26.63	-1.315	9.494	-18.16	-1.972	-0.8431	-0.3886	-0.3813	-2.68	-1.016	0.755	0.3427	-2.819	-0.3777	0.6177	0.2789	-5.302	-1.568	1.406	1.492	-1.462	-0.7262	0.02014	0.1021
306	3	4	2	-31.46	-2.284	-2.575	-0.02174	-10.38	2.118	-7.036	-31.29	-26.38	-3.019	8.763	-18.09	-1.623	-0.6101	-0.3689	-0.3422	-2.142	-0.6787	0.6882	0.3256	-2.488	-0.08163	0.6251	0.2661	-4.927	-1.188	1.216	1.389	-1.403	-0.717	0.01242	0.2474
306	3	4	2	-32.23	-1.54	-2.435	0.1469	-9.61	2.054	-8.128	-30	-26.54	-4.085	7.884	-17.8	-1.206	-0.3582	-0.3272	-0.2924	-1.511	-0.3187	0.6326	0.3011	-2.077	0.2325	0.6371	0.2448	-4.434	-0.7525	1.026	1.262	-1.298	-0.7001	0.0201	0.3963
306	3	4	2	-33.21	-0.2693	-2.258	0.3197	-8.655	1.997	-9.676	-27.83	-26.98	-4.551	6.924	-17.32	-0.7467	-0.1046	-0.2676	-0.234	-0.8289	0.04373	0.5942	0.2763	-1.611	0.5473	0.6565	0.2205	-3.858	-0.289	0.8547	1.126	-1.155	-0.6743	0.04578	0.5406
306	3	4	2	-34.36	1.468	-2.054	0.4873	-7.577	1.916	-11.65	-24.81	-27.53	-4.518	5.952	-16.71	-0.2718	0.1359	-0.1948	-0.169	-0.1398	0.3904	0.5764	0.2568	-1.12	0.8466	0.6854	0.1982	-3.235	0.1758	0.7157	0.9986	-0.9823	-0.6402	0.09105	0.6731
306	3	4	2	-35.58	3.536	-1.831	0.6416	-6.441	1.771	-13.98	-21.09	-27.97	-4.125	5.027	-16.01	0.1916	0.3525	-0.1135	-0.09969	0.5144	0.7071	0.5801	0.2467	-0.6323	1.117	0.7253	0.1816	-2.599	0.6173	0.6167	0.8884	-0.7901	-0.5993	0.1562	0.7882
306	3	4	2	-36.72	5.703	-1.597	0.7767	-5.319	1.524	-16.46	-16.9	-28.11	-3.529	4.192	-15.24	0.6201	0.5394	-0.02789	-0.02802	1.098	0.9845	0.6037	0.2477	-0.1733	1.35	0.776	0.1729	-1.98	1.016	0.5601	0.8014	-0.588	-0.5545	0.2401	0.8826
306	3	4	2	-37.54	7.647	-1.359	0.8884	-4.281	1.156	-18.76	-12.73	-27.77	-2.883	3.47	-14.39	0.9959	0.6962	0.05828	0.04438	1.588	1.218	0.6442	0.2597	0.2362	1.539	0.8365	0.1725	-1.402	1.357	0.5435	0.7386	-0.385	-0.5091	0.3398	0.9551
306	3	4	2	-37.76	8.989	-1.123	0.9751	-3.389	0.6736	-20.38	-9.295	-26.84	-2.307	2.868	-13.43	1.308	0.8261	0.1421	0.1163	1.972	1.409	0.6971	0.281	0.5822	1.685	0.9045	0.1796	-0.8799	1.637	0.561	0.6976	-0.1886	-0.4667	0.4511	1.006
306	3	4	2	-37.17	9.39	-0.8954	1.037	-2.688	0.1206	-20.71	-7.425	-25.27	-1.871	2.381	-12.36	1.552	0.9346	0.2211	0.1867	2.249	1.562	0.7577	0.3088	0.8575	1.79	0.9773	0.1926	-0.4204	1.855	0.6047	0.6739	-0.005045	-0.4302	0.5682	1.039
306	3	4	2	-35.66	8.672	-0.6807	1.075	-2.204	-0.4228	-19.35	-7.736	-23.12	-1.57	1.998	-11.14	1.731	1.028	0.2937	0.2549	2.43	1.681	0.8211	0.3398	1.061	1.857	1.051	0.2091	-0.02407	2.018	0.6659	0.6622	0.161	-0.4018	0.6847	1.058
306	3	4	2	-33.3	6.903	-0.4842	1.093	-1.945	-0.8486	-16.32	-10.22	-20.56	-1.315	1.704	-9.792	1.85	1.11	0.3587	0.3204	2.529	1.774	0.8831	0.371	1.199	1.895	1.123	0.2272	0.3129	2.136	0.7363	0.6575	0.3065	-0.3826	0.7938	1.068
306	3	4	2	-30.35	4.372	-0.3109	1.095	-1.908	-1.033	-12.11	-14.25	-17.88	-0.9304	1.486	-8.336	1.92	1.185	0.4153	0.3826	2.566	1.846	0.9403	0.3997	1.277	1.909	1.191	0.2449	0.5965	2.22	0.8085	0.6558	0.4295	-0.3725	0.8893	1.073
306	3	4	2	-27.15	1.472	-0.1651	1.085	-2.098	-0.8487	-7.408	-18.97	-15.47	-0.1793	1.33	-6.826	1.951	1.252	0.4634	0.441	2.556	1.902	0.9903	0.4243	1.305	1.907	1.251	0.2612	0.8333	2.281	0.8772	0.6545	0.5291	-0.3705	0.966	1.08
306	3	4	2	-24.04	-1.416	-0.05026	1.07	-2.54	-0.1755	-2.809	-23.66	-13.75	1.184	1.224	-5.343	1.951	1.311	0.5032	0.4953	2.517	1.946	1.032	0.4442	1.295	1.896	1.303	0.2756	1.029	2.329	0.9389	0.6528	0.6051	-0.3751	1.021	1.092
306	3	4	2	-21.31	-3.997	0.03135	1.054	-3.3	1.083	1.215	-27.84	-13.05	3.323	1.165	-3.992	1.929	1.361	0.5355	0.5452	2.461	1.977	1.063	0.4597	1.253	1.882	1.347	0.2882	1.187	2.373	0.9919	0.651	0.6579	-0.3841	1.052	1.112
306	3	4	2	-19.23	-6.078	0.07924	1.042	-4.487	2.969	4.322	-31.23	-13.47	6.171	1.164	-2.89	1.89	1.398	0.5611	0.5911	2.396	1.997	1.086	0.4719	1.188	1.87	1.383	0.2998	1.31	2.416	1.036	0.6503	0.6886	-0.3957	1.06	1.141
306	3	4	2	-17.96	-7.562	0.09469	1.04	-6.229	5.406	6.277	-33.74	-14.68	9.24	1.253	-2.158	1.84	1.422	0.5813	0.6331	2.329	2.005	1.1	0.4825	1.106	1.865	1.412	0.3115	1.399	2.462	1.072	0.6523	0.6985	-0.4083	1.047	1.178
306	3	4	2	-17.6	-8.449	0.08059	1.05	-8.594	8.089	6.979	-35.38	-15.83	11.45	1.484	-1.903	1.779	1.432	0.5971	0.6721	2.264	1.999	1.106	0.4931	1.012	1.869	1.435	0.3242	1.456	2.51	1.102	0.6584	0.6899	-0.4207	1.019	1.222
306	3	4	2	-18.12	-8.818	0.04099	1.072	-11.46	10.36	6.486	-36.26	-15.77	11.31	1.929	-2.207	1.711	1.429	0.6091	0.7086	2.2	1.983	1.105	0.5052	0.9072	1.883	1.452	0.3388	1.48	2.559	1.126	0.6696	0.6649	-0.4322	0.9775	1.269
306	3	4	2	-19.36	-8.814	-0.01953	1.107	-14.45	11.3	5.023	-36.59	-13.73	7.808	2.664	-3.109	1.636	1.415	0.6178	0.7434	2.136	1.956	1.097	0.5199	0.7949	1.908	1.464	0.3557	1.471	2.605	1.144	0.6863	0.626	-0.4428	0.9282	1.316
306	3	4	2	-21.09	-8.62	-0.09653	1.152	-17.11	10.17	2.927	-36.6	-10.12	1.38	3.745	-4.599	1.556	1.392	0.6227	0.7769	2.069	1.922	1.084	0.5374	0.676	1.942	1.471	0.3749	1.43	2.645	1.156	0.7083	0.5755	-0.4526	0.8733	1.361
306	3	4	2	-23.03	-8.42	-0.1862	1.204	-19.28	7.033	0.5668	-36.5	-6.199	-6.42	5.19	-6.607	1.471	1.362	0.6229	0.8091	1.995	1.886	1.064	0.5577	0.5509	1.982	1.471	0.3959	1.357	2.676	1.159	0.7346	0.5151	-0.4619	0.8139	1.4
306	3	4	2	-24.93	-8.359	-0.2857	1.259	-21.11	2.663	-1.736	-36.49	-3.217	-14.05	6.964	-9.011	1.381	1.33	0.6168	0.84	1.91	1.854	1.038	0.5801	0.4194	2.026	1.463	0.418	1.254	2.695	1.15	0.764	0.4459	-0.4713	0.7492	1.433
306	3	4	2	-26.56	-8.522	-0.3933	1.313	-22.79	-2.022	-3.741	-36.65	-1.875	-20.55	8.98	-11.64	1.288	1.299	0.6029	0.869	1.812	1.83	1.004	0.6038	0.2811	2.071	1.445	0.4401	1.122	2.701	1.127	0.7948	0.3685	-0.4812	0.6773	1.46
306	3	4	2	-27.8	-8.929	-0.5076	1.362	-24.36	-6.373	-5.299	-37	-2.263	-25.55	11.11	-14.31	1.191	1.272	0.5799	0.8954	1.699	1.818	0.9609	0.6276	0.1361	2.115	1.417	0.4614	0.9666	2.695	1.087	0.8249	0.2831	-0.4921	0.5956	1.48
306	3	4	2	-28.56	-9.541	-0.6281	1.403	-25.72	-10.05	-6.324	-37.51	-4.063	-28.98	13.18	-16.8	1.09	1.253	0.5474	0.9185	1.571	1.822	0.9094	0.6507	-0.01536	2.155	1.378	0.4811	0.7918	2.68	1.028	0.8527	0.1899	-0.5042	0.502	1.494
306	3	4	2	-28.8	-10.29	-0.7539	1.434	-26.7	-12.91	-6.765	-38.14	-6.802	-30.95	15.04	-18.94	0.9852	1.245	0.5059	0.9375	1.431	1.843	0.8495	0.6723	-0.1718	2.19	1.328	0.4985	0.6048	2.661	0.9512	0.8765	0.08928	-0.5175	0.3957	1.506
306	3	4	2	-28.49	-11.12	-0.8841	1.457	-27.12	-14.94	-6.566	-38.86	-10.04	-31.55	16.51	-20.56	0.8792	1.249	0.4571	0.9521	1.282	1.881	0.7827	0.6916	-0.3308	2.22	1.27	0.5134	0.4131	2.642	0.8585	0.8955	-0.01768	-0.5318	0.2777	1.516
306	3	4	2	-27.59	-12.01	-1.017	1.472	-26.73	-16.22	-5.639	-39.73	-13.45	-30.84	17.45	-21.53	0.7737	1.267	0.4038	0.9624	1.131	1.933	0.7111	0.7083	-0.489	2.245	1.206	0.5256	0.2247	2.628	0.7546	0.9093	-0.1291	-0.5467	0.1508	1.525
306	3	4	2	-26.02	-12.99	-1.15	1.484	-25.21	-16.96	-3.853	-40.91	-16.84	-28.8	17.78	-21.77	0.6718	1.297	0.3488	0.9689	0.9809	1.995	0.6371	0.7222	-0.6425	2.264	1.139	0.5354	0.04659	2.624	0.6451	0.9184	-0.2423	-0.5615	0.01938	1.535
306	3	4	2	-23.72	-14.19	-1.281	1.495	-22.11	-17.58	-1.047	-42.66	-20.14	-25.31	17.43	-21.27	0.5766	1.336	0.2952	0.9725	0.8381	2.062	0.5633	0.7332	-0.7874	2.279	1.072	0.5429	-0.116	2.632	0.536	0.9238	-0.3542	-0.5754	-0.1111	1.545
306	3	4	2	-20.63	-15.78	-1.405	1.508	-16.8	-18.83	2.886	-45.29	-23.38	-20.2	16.45	-20.1	0.4908	1.378	0.2451	0.9745	0.7052	2.129	0.4914	0.7416	-0.9206	2.291	1.007	0.5486	-0.2604	2.652	0.433	0.9271	-0.4614	-0.5878	-0.2355	1.557
306	3	4	2	-16.8	-17.93	-1.519	1.526	-8.687	-21.79	7.844	-49	-26.59	-13.31	14.95	-18.42	0.4164	1.42	0.1996	0.9762	0.5834	2.19	0.4225	0.7478	-1.04	2.301	0.9446	0.553	-0.3869	2.683	0.3405	0.9301	-0.5609	-0.598	-0.3492	1.567
306	3	4	2	-12.53	-20.7	-1.618	1.55	1.724	-27.22	13.33	-53.69	-29.53	-4.928	13.18	-16.54	0.3541	1.453	0.1587	0.9785	0.4724	2.241	0.3566	0.7523	-1.145	2.311	0.8857	0.5565	-0.4988	2.718	0.2612	0.9345	-0.6503	-0.6059	-0.4492	1.577
306	3	4	2	-8.432	-23.92	-1.698	1.577	10.71	-34.15	18.37	-58.88	-30.72	2.733	11.47	-14.9	0.3034	1.474	0.1215	0.9821	0.3708	2.278	0.2931	0.7557	-1.236	2.321	0.829	0.5595	-0.6019	2.751	0.1955	0.9421	-0.7282	-0.6112	-0.534	1.583
306	3	4	2	-5.404	-27.2	-1.757	1.607	12.17	-39.77	21.79	-63.83	-25.91	3.244	10.23	-14	0.2626	1.477	0.08617	0.9868	0.2776	2.299	0.2311	0.7585	-1.315	2.332	0.773	0.5621	-0.7033	2.775	0.1422	0.9538	-0.7943	-0.6142	-0.6037	1.585
306	3	4	2	-4.273	-30.02	-1.792	1.634	5.3	-42.84	22.76	-67.87	-12.66	-8.225	9.81	-14.3	0.2289	1.46	0.05097	0.9922	0.1929	2.301	0.1702	0.761	-1.383	2.344	0.7166	0.5641	-0.8096	2.784	0.09856	0.9702	-0.849	-0.6152	-0.6596	1.582
306	3	4	2	-5.334	-32.03	-1.805	1.656	-4.965	-44.42	21.26	-70.71	2.494	-25.19	10.35	-16	0.1987	1.424	0.01434	0.9971	0.1183	2.283	0.1107	0.7633	-1.441	2.358	0.6596	0.5653	-0.9254	2.773	0.06119	0.9913	-0.8935	-0.6146	-0.7039	1.574
306	3	4	2	-8.217	-33.13	-1.795	1.669	-15.04	-45.39	17.94	-72.34	11.82	-39.85	11.71	-18.9	0.1683	1.371	-0.02444	1.001	0.05712	2.243	0.0541	0.7652	-1.488	2.372	0.6029	0.5653	-1.052	2.743	0.02675	1.017	-0.9291	-0.6126	-0.7387	1.563
306	3	4	2	-12.2	-33.38	-1.768	1.67	-23.78	-45.94	13.65	-72.95	13.42	-49.84	13.54	-22.55	0.134	1.312	-0.06502	1.002	0.01284	2.182	0.003404	0.7667	-1.524	2.386	0.5491	0.5636	-1.185	2.698	-0.007158	1.045	-0.9567	-0.6095	-0.7659	1.552
306	3	4	2	-16.58	-32.91	-1.725	1.66	-31.05	-46.01	9.078	-72.68	9.874	-55.98	15.43	-26.37	0.09311	1.257	-0.106	1.001	-0.0123	2.102	-0.03765	0.7677	-1.546	2.399	0.5021	0.5602	-1.317	2.645	-0.0415	1.074	-0.9768	-0.6052	-0.7868	1.544
306	3	4	2	-20.85	-31.79	-1.671	1.641	-36.98	-45.51	4.689	-71.66	4.251	-59.61	17.06	-29.88	0.04441	1.221	-0.145	0.9995	-0.01911	2.011	-0.06512	0.7682	-1.55	2.409	0.4661	0.5553	-1.436	2.595	-0.07565	1.103	-0.9888	-0.5995	-0.8017	1.544
306	3	4	2	-24.71	-30.09	-1.609	1.618	-41.72	-44.38	0.7389	-69.93	-1.693	-61.6	18.24	-32.74	-0.01122	1.219	-0.1795	0.9978	-0.01255	1.919	-0.07581	0.7685	-1.536	2.418	0.4449	0.5495	-1.53	2.559	-0.1077	1.13	-0.9919	-0.592	-0.8104	1.555
306	3	4	2	-27.98	-27.85	-1.541	1.593	-45.42	-42.6	-2.635	-67.54	-7.202	-62.37	18.93	-34.74	-0.0705	1.261	-0.2072	0.9979	-0.001711	1.842	-0.06822	0.769	-1.502	2.423	0.441	0.5439	-1.588	2.544	-0.1352	1.152	-0.9846	-0.5818	-0.812	1.579
306	3	4	2	-30.57	-25.11	-1.469	1.573	-48.15	-40.15	-5.366	-64.51	-12	-62.15	19.19	-35.81	-0.128	1.352	-0.2265	1.001	0.00171	1.797	-0.04327	0.7701	-1.451	2.427	0.4541	0.5396	-1.602	2.558	-0.1559	1.17	-0.9658	-0.568	-0.8058	1.617
306	3	4	2	-32.43	-21.95	-1.395	1.558	-50	-37.06	-7.418	-60.89	-16.02	-61.04	19.11	-35.91	-0.1771	1.488	-0.2372	1.008	-0.01383	1.801	-0.004494	0.7722	-1.387	2.43	0.4817	0.5376	-1.569	2.601	-0.169	1.181	-0.9348	-0.549	-0.7914	1.666
306	3	4	2	-33.49	-18.51	-1.319	1.551	-50.97	-33.37	-8.757	-56.74	-19.24	-59.1	18.8	-35.07	-0.2118	1.655	-0.2405	1.019	-0.05652	1.865	0.04215	0.7749	-1.319	2.433	0.5182	0.5384	-1.489	2.67	-0.1757	1.186	-0.8921	-0.5228	-0.7694	1.722
306	3	4	2	-33.68	-15.04	-1.246	1.549	-51.07	-29.16	-9.322	-52.26	-21.7	-56.37	18.34	-33.31	-0.229	1.833	-0.239	1.03	-0.1288	1.993	0.08903	0.7778	-1.255	2.437	0.5563	0.5418	-1.371	2.761	-0.1796	1.184	-0.8391	-0.4864	-0.7417	1.781
306	3	4	2	-32.89	-11.89	-1.18	1.551	-50.23	-24.59	-9.001	-47.76	-23.41	-52.86	17.77	-30.68	-0.23	1.997	-0.2366	1.039	-0.2263	2.176	0.1279	0.7795	-1.205	2.444	0.5876	0.5466	-1.226	2.867	-0.187	1.176	-0.779	-0.4365	-0.7123	1.838
306	3	4	2	-31.07	-9.536	-1.126	1.554	-48.34	-19.93	-7.629	-43.77	-24.38	-48.62	17.08	-27.23	-0.2215	2.122	-0.2376	1.041	-0.3393	2.396	0.151	0.7779	-1.175	2.453	0.6034	0.5508	-1.07	2.979	-0.206	1.164	-0.7159	-0.3691	-0.6865	1.887
306	3	4	2	-28.3	-8.37	-1.09	1.554	-45.27	-15.6	-5.086	-40.98	-24.58	-43.7	16.21	-23.09	-0.2154	2.189	-0.2468	1.032	-0.4555	2.623	0.1523	0.7706	-1.173	2.464	0.5965	0.5518	-0.9192	3.092	-0.2453	1.15	-0.6552	-0.2808	-0.6709	1.926
306	3	4	2	-25.03	-8.463	-1.08	1.548	-40.99	-12.03	-1.568	-39.85	-23.92	-38.26	15.14	-18.46	-0.226	2.185	-0.2681	1.009	-0.5637	2.828	0.128	0.755	-1.199	2.475	0.5618	0.5468	-0.7891	3.201	-0.3124	1.136	-0.6023	-0.1695	-0.6717	1.953
306	3	4	2	-22.07	-9.398	-1.098	1.535	-35.81	-9.5	2.149	-40.25	-22.22	-32.63	13.87	-13.77	-0.2674	2.109	-0.3047	0.9702	-0.6563	2.981	0.07724	0.7291	-1.253	2.485	0.4968	0.5333	-0.6928	3.303	-0.4121	1.121	-0.562	-0.03535	-0.6938	1.968
306	3	4	2	-20.24	-10.44	-1.148	1.514	-30.67	-7.698	4.896	-41.29	-19.19	-27.44	12.54	-9.614	-0.3504	1.971	-0.3579	0.9154	-0.7311	3.06	0.001999	0.6916	-1.332	2.492	0.4026	0.5098	-0.6381	3.396	-0.5452	1.108	-0.5383	0.1184	-0.7397	1.972
306	3	4	2	-19.96	-10.91	-1.228	1.486	-27.03	-5.647	5.805	-41.91	-14.56	-23.59	11.37	-6.686	-0.4802	1.786	-0.4272	0.8468	-0.7905	3.056	-0.09329	0.6429	-1.428	2.494	0.2829	0.4759	-0.6274	3.478	-0.7082	1.094	-0.5333	0.2856	-0.8086	1.967
306	3	4	2	-21.11	-10.4	-1.336	1.455	-26.11	-2.024	4.773	-41.36	-8.622	-21.81	10.45	-5.352	-0.656	1.576	-0.5103	0.7681	-0.8396	2.971	-0.2024	0.5846	-1.534	2.491	0.1441	0.4327	-0.6576	3.548	-0.8939	1.079	-0.5473	0.4577	-0.8972	1.952
306	3	4	2	-23.26	-8.744	-1.467	1.425	-28.42	4.548	2.258	-39.31	-2.995	-21.77	9.626	-5.383	-0.8719	1.364	-0.6036	0.6843	-0.8844	2.816	-0.3182	0.5196	-1.644	2.483	-0.00557	0.3825	-0.7216	3.605	-1.092	1.062	-0.5796	0.6248	-0.9999	1.931
306	3	4	2	-25.92	-5.942	-1.613	1.401	-34.26	15.99	-1.149	-35.61	-0.347	-21.82	8.588	-6.089	-1.118	1.173	-0.7024	0.6004	-0.9296	2.608	-0.4336	0.4517	-1.749	2.471	-0.1577	0.3283	-0.8099	3.649	-1.293	1.041	-0.6286	0.7775	-1.111	1.905
306	3	4	2	-28.6	-2.143	-1.769	1.389	-46.05	37.5	-4.927	-30.27	-2.34	-20.13	7.067	-6.715	-1.384	1.019	-0.8023	0.5217	-0.9788	2.371	-0.5424	0.3848	-1.846	2.454	-0.3042	0.2736	-0.9128	3.68	-1.486	1.018	-0.6923	0.9079	-1.224	1.876
306	3	4	2	-30.74	2.216	-1.929	1.39	-102.6	125.5	-8.474	-23.65	-8.58	-15.63	4.949	-6.699	-1.659	0.9169	-0.8989	0.4522	-1.035	2.124	-0.64	0.3223	-1.933	2.433	-0.4387	0.2215	-1.022	3.7	-1.663	0.9911	-0.7691	1.011	-1.335	1.845
306	3	4	2	-31.47	6.061	-2.087	1.407	-43.7+69.36i	58.24-97.43i	-10.48	-17.28	-18.16	-7.314	2.249	-5.698	-1.931	0.8715	-0.9891	0.3947	-1.1	1.888	-0.7236	0.267	-2.008	2.409	-0.557	0.1745	-1.131	3.708	-1.818	0.963	-0.8576	1.083	-1.442	1.815
306	3	4	2	-29.36	7.346	-2.238	1.437	-45.18	91	-7.944	-15.27	-31.76	7.423	-0.9492	-3.545	-2.191	0.8821	-1.071	0.351	-1.18	1.681	-0.7928	0.2209	-2.076	2.38	-0.6573	0.1347	-1.236	3.705	-1.951	0.9343	-0.9565	1.126	-1.542	1.788
306	3	4	2	-23.06	3.801	-2.381	1.476	105.4-115.1i	-35.41+45.3i	2.374	-22.45	-57.61	41.04	-4.5	-0.2242	-2.43	0.9403	-1.143	0.321	-1.278	1.517	-0.8489	0.1847	-2.14	2.346	-0.7402	0.1031	-1.336	3.693	-2.059	0.9055	-1.065	1.14	-1.636	1.763
306	3	4	2	-13.26	-4.673	-2.511	1.518	61.25-115.1i	-40.89+45.3i	18.44	-37.25	-60.64+69.36i	44.83-97.43i	-8.129	4.036	-2.637	1.03	-1.205	0.304	-1.4	1.408	-0.8949	0.1586	-2.205	2.307	-0.8081	0.08023	-1.431	3.671	-2.145	0.8768	-1.181	1.131	-1.724	1.742
306	3	4	2	-3.358	-15.27	-2.628	1.554	131.6-115.1i	-83.48+45.3i	33.38	-53.12	-37.39+69.36i	14.33-97.43i	-11.24	8.508	-2.803	1.131	-1.259	0.2981	-1.549	1.36	-0.9347	0.1423	-2.278	2.265	-0.8648	0.06609	-1.524	3.639	-2.212	0.8479	-1.303	1.102	-1.807	1.722
306	3	4	2	2.684	-24.72	-2.731	1.575	49.11	-61.94	40.73	-65.21	-28.99+69.36i	7.762-97.43i	-12.63	11.57	-2.918	1.216	-1.306	0.3008	-1.727	1.374	-0.9721	0.1347	-2.361	2.22	-0.9145	0.06021	-1.616	3.598	-2.266	0.8183	-1.429	1.058	-1.887	1.702
306	3	4	2	3.107	-31.3	-2.818	1.574	16.68	-57.42	39.03	-72.24	-35.07+69.36i	25.1-97.43i	-10.57	10.79	-2.975	1.26	-1.346	0.3092	-1.927	1.444	-1.011	0.1348	-2.459	2.176	-0.9608	0.06186	-1.709	3.548	-2.31	0.788	-1.556	1.006	-1.963	1.681
306	3	4	2	-0.9181	-35.08	-2.893	1.546	-2.408	-56.13	31.87	-75.56	-12.97	6.693	-4.1	4.701	-2.972	1.242	-1.38	0.3207	-2.138	1.559	-1.052	0.1412	-2.568	2.135	-1.006	0.07007	-1.804	3.493	-2.351	0.7572	-1.683	0.9473	-2.038	1.658
306	3	4	2	-7.174	-36.81	-2.958	1.491	-16	-55.36	23.03	-76.74	31.08	-40.54	5.697	-5.474	-2.913	1.148	-1.409	0.3328	-2.342	1.697	-1.097	0.1525	-2.687	2.098	-1.052	0.08358	-1.9	3.433	-2.391	0.7271	-1.808	0.8879	-2.113	1.632
306	3	4	2	-14.03	-37.11	-3.017	1.412	-26.47	-54.39	14.38	-76.63	53.98	-65.48	16.51	-17.06	-2.812	0.9802	-1.434	0.3433	-2.519	1.834	-1.145	0.1669	-2.808	2.068	-1.098	0.1009	-1.996	3.374	-2.434	0.6997	-1.927	0.8308	-2.187	1.605
306	3	4	2	-20.67	-36.37	-3.077	1.318	-34.85	-52.96	6.53	-75.58	52.83	-75.99	26.18	-27.9	-2.69	0.7525	-1.454	0.3511	-2.644	1.939	-1.192	0.1828	-2.923	2.045	-1.143	0.1203	-2.089	3.318	-2.481	0.6774	-2.04	0.779	-2.261	1.577
306	3	4	2	-26.72	-34.74	-3.142	1.221	-41.69	-50.94	-0.3746	-73.72	38.33	-78.33	33.08	-36.75	-2.573	0.4934	-1.469	0.3557	-2.698	1.984	-1.236	0.1984	-3.023	2.029	-1.183	0.1401	-2.176	3.268	-2.533	0.663	-2.146	0.7351	-2.334	1.553
306	3	4	2	-32.08	-32.33	-3.217	1.131	-47.31	-48.28	-6.37	-71.07	22.63	-78.13	36.35	-43.06	-2.49	0.2401	-1.481	0.3575	-2.669	1.948	-1.274	0.2122	-3.1	2.018	-1.216	0.1586	-2.252	3.229	-2.587	0.6584	-2.242	0.7005	-2.406	1.534
306	3	4	2	-36.72	-29.18	-3.3	1.06	-51.91	-44.95	-11.54	-67.65	8.972	-77.06	36.11	-46.82	-2.464	0.03186	-1.489	0.3575	-2.557	1.821	-1.303	0.2231	-3.148	2.01	-1.24	0.1745	-2.314	3.202	-2.641	0.6647	-2.326	0.6759	-2.473	1.522
306	3	4	2	-40.65	-25.31	-3.39	1.015	-55.63	-40.9	-15.97	-63.42	-2.499	-75.42	33.25	-48.41	-2.507	-0.09725	-1.494	0.3575	-2.376	1.61	-1.32	0.2305	-3.163	2.005	-1.254	0.1872	-2.356	3.188	-2.69	0.6813	-2.396	0.6605	-2.534	1.521
306	3	4	2	-43.9	-20.75	-3.481	0.9983	-58.56	-36.12	-19.77	-58.32	-12.14	-73.22	28.87	-48.31	-2.62	-0.1243	-1.498	0.3591	-2.154	1.339	-1.327	0.2347	-3.144	2	-1.256	0.1969	-2.375	3.186	-2.729	0.7058	-2.45	0.6527	-2.584	1.528
306	3	4	2	-46.46	-15.54	-3.564	1.01	-60.75	-30.58	-23.02	-52.28	-20.29	-70.42	23.86	-46.9	-2.79	-0.0419	-1.501	0.3638	-1.927	1.045	-1.323	0.2362	-3.095	1.994	-1.248	0.2044	-2.368	3.193	-2.753	0.7345	-2.484	0.6495	-2.618	1.542
306	3	4	2	-48.29	-9.788	-3.63	1.044	-62.22	-24.28	-25.82	-45.22	-27.24	-66.95	18.78	-44.45	-2.991	0.1411	-1.502	0.3728	-1.734	0.7741	-1.31	0.2366	-3.022	1.987	-1.232	0.2112	-2.332	3.207	-2.759	0.7627	-2.497	0.6478	-2.635	1.561
306	3	4	2	-49.28	-3.735	-3.671	1.094	-62.89	-17.31	-28.24	-37.05	-33.19	-62.76	13.96	-41.11	-3.193	0.4005	-1.502	0.3863	-1.609	0.5728	-1.293	0.2376	-2.935	1.98	-1.211	0.2192	-2.271	3.222	-2.743	0.7862	-2.488	0.6443	-2.63	1.582
306	3	4	2	-49.1	2.092	-3.682	1.15	-62.54	-9.972	-30.23	-27.87	-38.33	-57.8	9.558	-36.97	-3.36	0.7014	-1.499	0.4038	-1.574	0.478	-1.273	0.2411	-2.844	1.973	-1.188	0.2303	-2.188	3.234	-2.706	0.802	-2.459	0.6368	-2.605	1.6
306	3	4	2	-47.19	6.712	-3.659	1.203	-60.6	-3.082	-31.36	-18.36	-42.81	-52	5.638	-32.08	-3.466	1.003	-1.492	0.4243	-1.637	0.5113	-1.253	0.2486	-2.76	1.968	-1.164	0.2459	-2.091	3.241	-2.651	0.8092	-2.415	0.6245	-2.561	1.616
306	3	4	2	-42.84	8.736	-3.604	1.247	-55.99	1.648	-30.16	-10.79	-46.78	-45.35	2.23	-26.51	-3.49	1.267	-1.482	0.4459	-1.787	0.6749	-1.234	0.2609	-2.69	1.964	-1.143	0.2663	-1.991	3.239	-2.583	0.8095	-2.361	0.6081	-2.502	1.629
306	3	4	2	-35.82	7.132	-3.521	1.275	-47.62	1.951	-24	-9.322	-50.33	-37.9	-0.6333	-20.35	-3.427	1.462	-1.467	0.4669	-2	0.9517	-1.217	0.2782	-2.642	1.96	-1.123	0.2909	-1.898	3.228	-2.506	0.8067	-2.305	0.5898	-2.433	1.64
306	3	4	2	-27.29	2.351	-3.417	1.287	-36.42	-2.78	-12.18	-16.04	-53.4	-30.04	-2.853	-13.85	-3.286	1.567	-1.449	0.4855	-2.244	1.308	-1.201	0.2995	-2.618	1.957	-1.105	0.3181	-1.822	3.209	-2.427	0.8057	-2.255	0.5728	-2.36	1.654
306	3	4	2	-19.65	-3.723	-3.3	1.281	-26.75	-9.791	1.241	-27.09	-55.54	-22.77	-4.166	-7.512	-3.087	1.577	-1.427	0.5005	-2.483	1.701	-1.185	0.3232	-2.617	1.953	-1.088	0.3457	-1.774	3.184	-2.352	0.8114	-2.219	0.5601	-2.289	1.673
306	3	4	2	-15.05	-9.139	-3.181	1.26	-23.12	-15.47	11.15	-37.4	-55.78	-18.03	-4.045	-2.342	-2.856	1.501	-1.404	0.5109	-2.684	2.083	-1.167	0.3474	-2.636	1.945	-1.069	0.371	-1.757	3.154	-2.282	0.8276	-2.199	0.554	-2.222	1.699
306	3	4	2	-14.06	-12.9	-3.068	1.228	-25.65	-18.5	15.34	-44.6	-53.19	-17.84	-1.774	0.2751	-2.624	1.355	-1.381	0.5164	-2.827	2.413	-1.146	0.37	-2.669	1.933	-1.049	0.3919	-1.772	3.121	-2.221	0.8556	-2.199	0.5556	-2.162	1.733
306	3	4	2	-15.82	-14.94	-2.971	1.188	-31.43	-19.45	14.79	-48.64	-48.36	-22.13	2.964	-0.6807	-2.417	1.162	-1.361	0.5173	-2.9	2.661	-1.121	0.3894	-2.71	1.918	-1.027	0.4069	-1.815	3.086	-2.167	0.8942	-2.217	0.5638	-2.109	1.771
306	3	4	2	-19.08	-15.55	-2.896	1.145	-38.06	-19.06	11.58	-50.25	-43.27	-28.61	9.335	-4.802	-2.253	0.9469	-1.344	0.514	-2.904	2.811	-1.094	0.4046	-2.753	1.899	-1.005	0.4153	-1.879	3.051	-2.119	0.94	-2.251	0.5764	-2.061	1.811
306	3	4	2	-22.88	-15.03	-2.85	1.106	-44.44	-17.72	7.353	-50.12	-39.56	-35.04	15.57	-10.41	-2.146	0.7331	-1.332	0.5074	-2.85	2.861	-1.066	0.4148	-2.793	1.878	-0.9821	0.4171	-1.955	3.016	-2.076	0.988	-2.295	0.59	-2.019	1.847
306	3	4	2	-26.63	-13.6	-2.838	1.075	-50.2	-15.62	3.022	-48.65	-37.7	-40.31	20.05	-15.77	-2.098	0.54	-1.326	0.4984	-2.753	2.818	-1.041	0.4201	-2.827	1.857	-0.9625	0.4131	-2.037	2.982	-2.04	1.033	-2.347	0.6014	-1.982	1.873
306	3	4	2	-30.01	-11.43	-2.862	1.056	-55.23	-12.91	-0.963	-46.1	-37.42	-44.19	22.09	-19.88	-2.108	0.3834	-1.328	0.4881	-2.631	2.7	-1.02	0.4207	-2.853	1.838	-0.9482	0.4045	-2.118	2.95	-2.013	1.07	-2.403	0.6081	-1.953	1.887
306	3	4	2	-32.74	-8.759	-2.921	1.052	-59.42	-9.839	-4.315	-42.75	-38.24	-46.77	21.87	-22.41	-2.17	0.2742	-1.338	0.4776	-2.502	2.529	-1.008	0.4171	-2.873	1.822	-0.9419	0.3928	-2.197	2.922	-1.998	1.096	-2.462	0.6092	-1.936	1.888
306	3	4	2	-34.54	-5.974	-3.013	1.062	-62.59	-6.856	-6.704	-39.03	-39.7	-48.26	20.03	-23.44	-2.278	0.2191	-1.357	0.4679	-2.383	2.324	-1.007	0.4101	-2.888	1.808	-0.9459	0.3792	-2.273	2.898	-2.001	1.111	-2.525	0.6055	-1.935	1.876
306	3	4	2	-35.02	-3.722	-3.133	1.085	-64.42	-4.687	-7.589	-35.81	-41.49	-48.85	17.21	-23.16	-2.42	0.2197	-1.386	0.4601	-2.289	2.11	-1.018	0.4008	-2.903	1.796	-0.9623	0.3654	-2.349	2.88	-2.026	1.115	-2.592	0.5995	-1.958	1.855
306	3	4	2	-33.72	-2.891	-3.273	1.116	-64.51	-4.211	-6.196	-34.49	-43.38	-48.73	13.94	-21.74	-2.586	0.2724	-1.423	0.4552	-2.233	1.904	-1.042	0.3903	-2.922	1.787	-0.9925	0.3525	-2.429	2.87	-2.075	1.11	-2.665	0.5944	-2.006	1.829
306	3	4	2	-30.45	-4.28	-3.423	1.148	-62.79	-6.008	-2.032	-36.46	-45.22	-48.07	10.59	-19.4	-2.764	0.368	-1.47	0.4537	-2.225	1.727	-1.08	0.3797	-2.952	1.779	-1.037	0.3418	-2.515	2.869	-2.151	1.1	-2.743	0.5941	-2.084	1.804
306	3	4	2	-25.84	-7.947	-3.574	1.175	-59.86	-9.847	4.006	-41.74	-46.86	-47.09	7.471	-16.38	-2.939	0.4918	-1.524	0.456	-2.272	1.594	-1.132	0.3701	-2.996	1.773	-1.096	0.3342	-2.61	2.877	-2.25	1.088	-2.828	0.6016	-2.189	1.783
306	3	4	2	-21.49	-12.9	-3.718	1.189	-56.85	-14.72	9.345	-48.54	-48.16	-46.04	4.962	-13.14	-3.098	0.6241	-1.584	0.4619	-2.376	1.515	-1.194	0.3627	-3.057	1.767	-1.166	0.3307	-2.713	2.893	-2.368	1.075	-2.915	0.6188	-2.317	1.769
306	3	4	2	-19.26	-17.67	-3.846	1.184	-54.88	-19.47	11.4	-54.62	-48.99	-45.23	3.614	-10.44	-3.226	0.7421	-1.646	0.4707	-2.532	1.498	-1.265	0.3582	-3.134	1.763	-1.247	0.3316	-2.821	2.915	-2.498	1.063	-3.001	0.6459	-2.462	1.764
306	3	4	2	-20.03	-21.19	-3.954	1.157	-54.55	-23.27	9.482	-58.78	-49.19	-44.98	4.167	-9.419	-3.31	0.8224	-1.709	0.4814	-2.728	1.542	-1.34	0.3575	-3.226	1.762	-1.334	0.3373	-2.929	2.94	-2.632	1.054	-3.082	0.6814	-2.615	1.764
306	3	4	2	-23.4	-23.16	-4.041	1.109	-55.87	-25.76	4.73	-61	-48.72	-45.53	7.237	-11.19	-3.341	0.8452	-1.767	0.4923	-2.946	1.642	-1.417	0.3609	-3.327	1.763	-1.422	0.3479	-3.03	2.965	-2.76	1.048	-3.154	0.7225	-2.765	1.769
306	3	4	2	-28.3	-23.73	-4.109	1.046	-58.44	-26.9	-1.334	-61.67	-47.63	-46.94	12.68	-15.97	-3.318	0.7982	-1.818	0.5016	-3.16	1.783	-1.492	0.3686	-3.429	1.767	-1.506	0.363	-3.119	2.988	-2.874	1.044	-3.213	0.7652	-2.903	1.775
306	3	4	2	-33.78	-23.15	-4.164	0.975	-61.78	-26.8	-7.646	-61.15	-46.18	-49.08	19.29	-22.79	-3.246	0.6799	-1.856	0.5074	-3.343	1.944	-1.559	0.3803	-3.525	1.776	-1.581	0.3818	-3.189	3.006	-2.968	1.044	-3.255	0.8058	-3.022	1.781
306	3	4	2	-39.19	-21.63	-4.209	0.9079	-65.46	-25.6	-13.64	-59.66	-44.69	-51.62	25.31	-30.01	-3.141	0.5015	-1.881	0.5082	-3.467	2.1	-1.615	0.3952	-3.605	1.79	-1.642	0.4033	-3.236	3.019	-3.038	1.047	-3.279	0.8411	-3.114	1.786
306	3	4	2	-44.2	-19.29	-4.252	0.8554	-69.17	-23.45	-19.06	-57.31	-43.5	-54.18	29.2	-36.28	-3.024	0.2865	-1.889	0.5029	-3.509	2.223	-1.657	0.4122	-3.661	1.807	-1.685	0.4258	-3.255	3.027	-3.083	1.056	-3.285	0.8693	-3.177	1.789
306	3	4	2	-48.64	-16.22	-4.295	0.8268	-72.68	-20.5	-23.82	-54.18	-42.86	-56.42	30.28	-40.84	-2.921	0.06692	-1.881	0.4916	-3.454	2.287	-1.683	0.4294	-3.689	1.826	-1.707	0.447	-3.248	3.031	-3.102	1.072	-3.276	0.8907	-3.211	1.794
306	3	4	2	-52.4	-12.5	-4.338	0.8275	-75.78	-16.97	-27.88	-50.3	-42.88	-58.11	28.76	-43.56	-2.855	-0.1211	-1.859	0.4754	-3.299	2.272	-1.689	0.4447	-3.682	1.845	-1.706	0.4647	-3.216	3.037	-3.099	1.096	-3.254	0.9068	-3.216	1.804
306	3	4	2	-55.41	-8.209	-4.379	0.8585	-78.26	-13.16	-31.26	-45.7	-43.53	-59.14	25.41	-44.63	-2.845	-0.244	-1.826	0.4566	-3.055	2.169	-1.676	0.456	-3.641	1.861	-1.681	0.4767	-3.161	3.047	-3.077	1.129	-3.223	0.9207	-3.198	1.822
306	3	4	2	-57.6	-3.495	-4.412	0.9156	-79.8	-9.559	-33.93	-40.42	-44.69	-59.46	21.07	-44.36	-2.9	-0.276	-1.786	0.4382	-2.75	1.984	-1.643	0.4614	-3.567	1.87	-1.634	0.4808	-3.088	3.067	-3.04	1.17	-3.187	0.9358	-3.159	1.851
306	3	4	2	-58.81	1.415	-4.429	0.991	-79.99	-6.875	-35.89	-34.53	-46.21	-59.11	16.4	-43	-3.015	-0.2036	-1.744	0.4237	-2.427	1.739	-1.593	0.4594	-3.465	1.869	-1.567	0.4761	-3.001	3.097	-2.992	1.218	-3.148	0.9549	-3.105	1.893
306	3	4	2	-58.81	6.138	-4.422	1.074	-78.45	-5.879	-37.02	-28.19	-47.91	-58.17	11.82	-40.73	-3.175	-0.02788	-1.704	0.4164	-2.135	1.47	-1.526	0.4498	-3.342	1.855	-1.486	0.4626	-2.906	3.14	-2.934	1.269	-3.109	0.9796	-3.039	1.947
306	3	4	2	-57.24	10.12	-4.387	1.155	-75.05	-7.053	-37.17	-21.7	-49.6	-56.74	7.58	-37.66	-3.356	0.2352	-1.669	0.4185	-1.927	1.222	-1.448	0.4331	-3.209	1.83	-1.395	0.4416	-2.806	3.195	-2.867	1.32	-3.072	1.01	-2.964	2.012
306	3	4	2	-53.74	12.68	-4.321	1.223	-70.24	-10.22	-35.99	-15.59	-51.13	-54.99	3.836	-33.89	-3.527	0.5565	-1.642	0.431	-1.844	1.043	-1.364	0.4114	-3.077	1.793	-1.3	0.4159	-2.704	3.256	-2.792	1.364	-3.036	1.043	-2.88	2.081
306	3	4	2	-48.1	13.3	-4.229	1.273	-64.95	-14.59	-33.02	-10.65	-52.33	-53.08	0.6887	-29.49	-3.658	0.8981	-1.623	0.4535	-1.916	0.9744	-1.279	0.3878	-2.956	1.75	-1.209	0.3895	-2.601	3.318	-2.706	1.397	-2.999	1.074	-2.788	2.148
306	3	4	2	-40.62	11.92	-4.116	1.303	-60.22	-19.19	-27.85	-7.735	-53.05	-51.23	-1.781	-24.53	-3.721	1.218	-1.61	0.4839	-2.145	1.043	-1.199	0.3663	-2.858	1.705	-1.127	0.3669	-2.499	3.374	-2.612	1.414	-2.96	1.1	-2.688	2.206
